Density;f;f0;u;P;u_0;P_0;T;;;;;;
5.812E-08;0;0;0;0;0;0;13820935.95;0.641807536;;;;11.0428;0.59795
1.606545595;-0.911340106;-0.909340268;-0.03019563;0.076676356;-0.030096631;0.07741306;13820935.95;1.317394416;;;;22.6668;1.41448
3.213091191;-1.666555756;-1.660743411;-0.025733931;0.243887685;-0.025558134;0.247794101;13820935.95;1.992981296;;;;34.2908;2.06732
4.819636786;-2.364994558;-2.353371736;-0.024635215;0.322104164;-0.024393014;0.330566016;13820935.95;2.668568176;;;;45.9148;2.66418
6.426182381;-3.027406451;-3.008297116;-0.023419694;0.437949677;-0.023121161;0.451848455;13820935.95;3.344155056;;;;57.5388;3.23913
8.032727976;-3.663590486;-3.63552325;-0.022623922;0.536752767;-0.022275529;0.556836704;13820935.95;4.019741936;;;;69.1628;3.80259
9.639273572;-4.279254025;-4.240939093;-0.021948888;0.639003901;-0.021556591;0.665751915;13820935.95;4.695328816;;;;80.7868;4.26232
11.24581917;-4.8781519;-4.828433361;-0.021398091;0.737768915;-0.020965834;0.771689025;13820935.95;5.370915696;;;;92.4108;4.72745
12.85236476;-5.462952733;-5.40076783;-0.020926753;0.83531565;-0.020457444;0.876911353;13820935.95;6.046502576;;;;104.0348;5.05937
14.45891036;-6.035646055;-5.960005684;-0.020518894;0.931020314;-0.020015064;0.980721272;13820935.95;6.722089456;;;;115.6588;5.40298
16.06545595;-6.597761731;-6.507746806;-0.020159626;1.02526366;-0.019623837;1.083351047;13820935.95;7.397676336;;;;127.2828;5.87178
17.67200155;-7.150504301;-7.045267921;-0.019839281;1.118160699;-0.019274186;1.184747498;13820935.95;8.073263216;;;;138.9068;6.08759
19.27854714;-7.694842234;-7.573611326;-0.019550492;1.209895721;-0.018958761;1.284943549;13820935.95;8.748850096;;;;150.5308;6.43386
20.88509274;-8.231569594;-8.093643842;-0.019287846;1.300591395;-0.018672056;1.383946212;13820935.95;9.424436976;;;;162.1548;6.77218
22.49163833;-8.761349492;-8.606097507;-0.019047223;1.390337064;-0.018409772;1.481769866;13820935.95;10.10002386;;;;173.7788;7.00358
24.09818393;-9.284745145;-9.111598591;-0.018825459;1.479181165;-0.018168505;1.578426434;13820935.95;10.77561074;;;;185.4028;7.36998
25.70472952;-9.802242311;-9.610688838;-0.018620079;1.567140846;-0.017945512;1.673928246;13820935.95;11.45119762;;;;197.0268;7.68496
27.31127512;-10.31426558;-10.10384137;-0.018429107;1.654210475;-0.01773855;1.768287206;13820935.95;12.1267845;;;;208.6508;7.96053
28.91782071;-10.82119023;-10.59147286;-0.018250931;1.740372175;-0.01754576;1.861515031;13820935.95;12.80237138;;;;220.2748;8.36953
30.52436631;-11.32335088;-11.07395294;-0.018084207;1.825605445;-0.017365588;1.953623186;13820935.95;13.47795826;;;;231.8988;8.5855
32.13091191;-11.82104786;-11.5516117;-0.017927789;1.909895065;-0.017196717;2.044622907;13820935.95;14.15354514;;;;243.5228;9.05393
33.7374575;-12.31455192;-12.0247456;-0.017780678;1.993236502;-0.017038024;2.134525199;13820935.95;14.82913202;;;;255.1468;9.51653
35.3440031;-12.80410792;-12.49362234;-0.017641992;2.075638705;-0.016888544;2.22334084;13820935.95;15.5047189;;;;266.7708;9.84956
36.95054869;-13.2899377;-12.95848474;-0.017510947;2.157124591;-0.016747441;2.311080385;13820935.95;16.18030578;;;;278.3948;10.41576
38.55709429;-13.77224252;-13.41955405;-0.017386836;2.237729791;-0.016613986;2.39775417;13820935.95;16.85589266;;;;290.0188;10.81012
40.16363988;-14.25120514;-13.87703263;-0.017269026;2.317500316;-0.016487538;2.483372318;13820935.95;17.53147954;;;;301.6428;11.45582
41.77018548;-14.7269917;-14.33110625;-0.017156945;2.39648971;-0.016367534;2.567944739;13820935.95;18.20706642;;;;313.2668;12.13122
43.37673107;-15.19975337;-14.78194598;-0.017050082;2.474756169;-0.016253475;2.651481139;13820935.95;18.8826533;;;;324.8908;12.80728
44.98327667;-15.66962793;-15.22970987;-0.016947979;2.552359906;-0.016144915;2.733991021;13820935.95;19.55824018;;;;336.5148;13.84522
46.58982226;-16.13674116;-15.67454433;-0.016850224;2.62936092;-0.016041456;2.815483689;13820935.95;20.23382706;;;;348.1388;14.873
48.19636786;-16.60120809;-16.11658535;-0.016756452;2.705817209;-0.015942742;2.895968255;13820935.95;20.90941394;;;;359.7628;16.12226
49.80291345;-17.06313424;-16.55595955;-0.016666336;2.781783413;-0.01584845;2.975453643;13820935.95;21.58500082;;;;371.3868;17.48661
51.40945905;-17.52261659;-16.99278509;-0.016579588;2.857309822;-0.01575829;3.05394859;13820935.95;22.2605877;;;;383.0108;19.11722
53.01600464;-17.97974456;-17.42717247;-0.016495948;2.932441686;-0.015671998;3.131461656;13820935.95;22.93617458;;;;394.6348;20.76887
54.62255024;-18.43460088;-17.85922523;-0.016415188;3.007218766;-0.015589333;3.208001221;13820935.95;23.61176146;;;;406.2588;23.24547
56.22909583;-18.8872623;-18.28904059;-0.016337107;3.081675069;-0.015510077;3.283575497;13820935.95;24.28734834;;;;417.8828;25.82588
57.83564143;-19.33780031;-18.71670994;-0.016261523;3.155838734;-0.01543403;3.35819253;13820935.95;24.96293522;;;;429.5068;28.79106
59.44218702;-19.78628172;-19.14231942;-0.016188278;3.229732033;-0.015361008;3.431860201;13820935.95;25.6385221;;;;441.1308;31.88142
61.04873262;-20.23276919;-19.56595027;-0.016117232;3.303371476;-0.015290841;3.504586235;13820935.95;26.31410898;;;;452.7548;35.70425
62.65527822;-20.67732176;-19.98767926;-0.01604826;3.376767994;-0.015223375;3.576378205;13820935.95;26.98969586;;;;464.3788;40.80592
64.26182381;-21.11999517;-20.40757901;-0.015981251;3.449927202;-0.015158466;3.647243535;13820935.95;27.66528274;;;;476.0028;45.71521
65.86836941;-21.56084235;-20.82571837;-0.015916109;3.522849719;-0.015095982;3.717189504;13820935.95;28.34086962;;;;487.6268;51.70405
67.474915;-21.99991365;-21.2421626;-0.015852746;3.595531546;-0.015035798;3.786223254;13820935.95;29.0164565;;;;499.2508;58.21239
69.0814606;-22.43725719;-21.65697372;-0.015791086;3.667964486;-0.014977801;3.854351792;13820935.95;29.69204338;;;;510.8748;65.91481
70.68800619;-22.87291907;-22.0702107;-0.015731061;3.740136605;-0.014921885;3.921581995;13820935.95;0.2906;;;;5;0.3897
72.29455179;-23.30694362;-22.48192965;-0.015672609;3.812032715;-0.01486795;3.987920617;13820935.95;0.8718;;;;15;1.03673
73.90109738;-23.73937354;-22.89218406;-0.015615675;3.883634876;-0.014815905;4.053374289;13820935.95;1.453;;;;25;1.53439
75.50764298;-24.17025013;-23.30102495;-0.01556021;3.954922902;-0.014765662;4.117949531;13820935.95;2.0342;;;;35;2.00401
77.11418857;-24.59961335;-23.70850101;-0.01550617;4.02587487;-0.014717141;4.181652748;13820935.95;2.6154;;;;45;2.45193
78.72073417;-25.02750197;-24.11465879;-0.015453511;4.09646761;-0.014670267;4.244490244;13820935.95;3.1966;;;;55;2.84051
80.32727976;-25.45395367;-24.51954281;-0.015402196;4.166677183;-0.014624968;4.306468218;13820935.95;3.7778;;;;65;3.1678
81.93382536;-25.87900509;-24.92319568;-0.015352189;4.236479324;-0.014581177;4.367592777;13820935.95;4.359;;;;75;3.52716
83.54037095;-26.30269191;-25.32565821;-0.015303457;4.305849864;-0.014538832;4.427869935;13820935.95;4.9402;;;;85;3.81279
85.14691655;-26.72504892;-25.72696954;-0.015255966;4.374765099;-0.014497874;4.487305621;13820935.95;5.5214;;;;95;4.06288
86.75346214;-27.14611001;-26.12716722;-0.015209687;4.443202129;-0.014458246;4.545905682;13820935.95;6.1026;;;;105;4.2722
88.36000774;-27.56590824;-26.5262873;-0.015164589;4.511139153;-0.014419897;4.603675892;13820935.95;6.6838;;;;115;4.4855
89.96655333;-27.98447586;-26.92436441;-0.015120642;4.578555708;-0.014382775;4.66062195;13820935.95;7.265;;;;125;4.66759
91.57309893;-28.40184431;-27.32143184;-0.015077819;4.645432877;-0.014346835;4.716749491;13820935.95;7.8462;;;;135;4.83291
93.17964453;-28.81804424;-27.71752163;-0.015036091;4.711753442;-0.014312031;4.772064091;13820935.95;8.4274;;;;145;5.0303
94.78619012;-29.23310555;-28.1126646;-0.01499543;4.777502003;-0.014278322;4.826571267;13820935.95;9.0086;;;;155;5.16271
96.39273572;-29.64705733;-28.50689044;-0.014955808;4.842665049;-0.014245667;4.880276488;13820935.95;9.5898;;;;165;5.27377
97.99928131;-30.05992795;-28.90022776;-0.014917199;4.907230997;-0.014214028;4.933185174;13820935.95;10.171;;;;175;5.38294
99.60582691;-30.47174499;-29.29270414;-0.014879574;4.971190202;-0.014183369;4.985302709;13820935.95;10.7522;;;;185;5.52228
101.2123725;-30.88253531;-29.68434619;-0.014842907;5.034534925;-0.014153655;5.036634438;13820935.95;11.3334;;;;195;5.66612
102.8189181;-31.29232501;-30.07517959;-0.01480717;5.097259291;-0.014124854;5.087185677;13820935.95;11.9146;;;;205;5.77268
104.4254637;-31.70113945;-30.46522912;-0.014772338;5.159359214;-0.014096934;5.136961719;13820935.95;12.4958;;;;215;5.87951
106.0320093;-32.10900326;-30.85451874;-0.014738384;5.220832311;-0.014069866;5.185967833;13820935.95;13.077;;;;225;5.97972
107.6385549;-32.51594036;-31.24307158;-0.014705282;5.281677798;-0.014043621;5.234209277;13820935.95;13.6582;;;;235;6.16458
109.2451005;-32.92197394;-31.63091002;-0.014673007;5.341896382;-0.014018172;5.281691299;13820935.95;14.2394;;;;245;6.30746
110.8516461;-33.32712649;-32.0180557;-0.014641533;5.401490141;-0.013993492;5.328419141;13820935.95;14.8206;;;;255;6.45015
112.4581917;-33.73141983;-32.40452954;-0.014610835;5.460462399;-0.013969558;5.37439805;13820935.95;15.4018;;;;265;6.59286
114.0647373;-34.13487506;-32.79035181;-0.014580889;5.518817606;-0.013946345;5.419633275;13820935.95;15.983;;;;275;6.77912
115.6712829;-34.53751266;-33.17554213;-0.014551671;5.576561209;-0.01392383;5.46413008;13820935.95;16.5642;;;;285;6.95016
117.2778285;-34.93935243;-33.56011949;-0.014523159;5.633699539;-0.013901991;5.507893745;13820935.95;17.1454;;;;295;7.19917
118.884374;-35.34041355;-33.9441023;-0.014495329;5.690239688;-0.013880808;5.550929573;13820935.95;17.7266;;;;305;7.44498
120.4909196;-35.74071457;-34.32750839;-0.014468159;5.7461894;-0.01386026;5.593242894;13820935.95;18.3078;;;;315;7.75685
122.0974652;-36.14027344;-34.71035505;-0.014441628;5.801556964;-0.013840328;5.634839072;13820935.95;18.889;;;;325;8.12201
123.7040108;-36.53910754;-35.09265905;-0.014415715;5.856351117;-0.013820993;5.675723508;13820935.95;19.4702;;;;335;8.48209
125.3105564;-36.93723366;-35.47443664;-0.0143904;5.910580953;-0.013802237;5.71590165;13820935.95;20.0514;;;;345;8.98049
126.917102;-37.33466806;-35.85570359;-0.014365663;5.964255836;-0.013784044;5.755378993;13820935.95;20.6326;;;;355;9.63196
128.5236476;-37.73142647;-36.23647519;-0.014341486;6.017385325;-0.013766395;5.794161087;13820935.95;21.2138;;;;365;10.3456
130.1301932;-38.12752408;-36.61676631;-0.014317849;6.069979105;-0.013749276;5.832253543;13820935.95;21.795;;;;375;11.168
131.7367388;-38.52297561;-36.99659135;-0.014294737;6.122046924;-0.01373267;5.869662038;13820935.95;22.3762;;;;385;12.14452
133.3432844;-38.9177953;-37.37596431;-0.01427213;6.173598536;-0.013716563;5.906392318;13820935.95;22.9574;;;;395;13.39289
134.94983;-39.31199692;-37.75489876;-0.014250014;6.224643654;-0.01370094;5.942450209;13820935.95;23.5386;;;;405;14.569
136.5563756;-39.7055938;-38.13340789;-0.014228372;6.275191907;-0.013685787;5.977841617;13820935.95;24.1198;;;;415;16.43053
138.1629212;-40.09859884;-38.51150452;-0.01420719;6.3252528;-0.013671091;6.012572537;13820935.95;24.701;;;;425;17.96611
139.7694668;-40.49102455;-38.88920109;-0.014186452;6.374835685;-0.013656839;6.046649054;13820935.95;0;;;;0;
141.3760124;-40.88288301;-39.26650969;-0.014166146;6.423949732;-0.013643018;6.080077356;13820935.95;0;;;;0;
142.982558;-41.27418597;-39.64344205;-0.014146257;6.472603906;-0.013629615;6.112863733;13820935.95;0;;;;0;
144.5891036;-41.66494477;-40.02000958;-0.014126772;6.52080695;-0.013616619;6.145014585;13820935.95;0;;;;0;
146.1956492;-42.05517042;-40.39622336;-0.01410768;6.56856737;-0.013604018;6.176536427;13820935.95;0;;;;0;
147.8021948;-42.44487361;-40.77209415;-0.014088968;6.61589342;-0.0135918;6.207435896;13820935.95;0;;;;0;
149.4087404;-42.8340647;-41.14763241;-0.014070625;6.662793099;-0.013579956;6.237719754;13820935.95;0;;;;0;
151.015286;-43.22275372;-41.52284829;-0.01405264;6.709274141;-0.013568474;6.267394898;13820935.95;0;;;;0;
152.6218316;-43.61095044;-41.89775168;-0.014035003;6.755344012;-0.013557343;6.296468358;13820935.95;0;;;;0;
154.2283771;-43.99866434;-42.27235214;-0.014017704;6.801009912;-0.013546555;6.324947311;13820935.95;0;;;;0;
155.8349227;-44.3859046;-42.646659;-0.014000732;6.846278773;-0.013536098;6.352839083;13820935.95;0;;;;0;
157.4414683;-44.77268018;-43.0206813;-0.01398408;6.891157263;-0.013525964;6.380151151;13820935.95;0;;;;0;
159.0480139;-45.15899976;-43.39442781;-0.013967738;6.935651793;-0.013516143;6.406891156;13820935.95;0;;;;0;
160.6545595;-45.54487181;-43.76790706;-0.013951697;6.97976852;-0.013506625;6.433066902;13820935.95;0;;;;0;
162.2611051;-45.93030453;-44.14112733;-0.01393595;7.023513356;-0.013497403;6.458686366;13820935.95;0;;;;0;
163.8676507;-46.31530595;-44.51409665;-0.013920489;7.066891979;-0.013488466;6.483757701;13820935.95;0;;;;0;
165.4741963;-46.69988384;-44.88682281;-0.013905306;7.109909839;-0.013479808;6.508289243;13820935.95;0;;;;0;
167.0807419;-47.0840458;-45.25931337;-0.013890393;7.152572176;-0.013471419;6.532289517;13820935.95;0;;;;0;
168.6872875;-47.46779923;-45.63157567;-0.013875745;7.194884026;-0.013463291;6.55576724;13820935.95;0;;;;0;
170.2938331;-47.85115132;-46.00361682;-0.013861354;7.23685024;-0.013455416;6.578731331;13820935.95;0;;;;0;
171.9003787;-48.23410911;-46.3754437;-0.013847215;7.278475496;-0.013447786;6.601190912;13820935.95;0;;;;0;
173.5069243;-48.61667944;-46.74706299;-0.013833319;7.319764315;-0.013440395;6.623155317;13820935.95;0;;;;0;
175.1134699;-48.998869;-47.11848114;-0.013819663;7.360721076;-0.013433233;6.644634097;13820935.95;0;;;;0;
176.7200155;-49.3806843;-47.48970443;-0.01380624;7.401350039;-0.013426294;6.665637023;13820935.95;0;;;;0;
178.3265611;-49.76213171;-47.8607389;-0.013793044;7.441655353;-0.01341957;6.686174096;13820935.95;0;;;;0;
179.9331067;-50.14321745;-48.2315904;-0.01378007;7.481641084;-0.013413054;6.706255551;13820935.95;0;;;;0;
181.5396523;-50.52394758;-48.60226459;-0.013767313;7.52131123;-0.013406739;6.725891859;13820935.95;0;;;;0;
183.1461979;-50.90432801;-48.97276693;-0.013754768;7.560669742;-0.013400619;6.745093738;13820935.95;0;;;;0;
184.7527435;-51.28436454;-49.34310269;-0.013742429;7.599720541;-0.013394685;6.763872157;13820935.95;0;;;;0;
186.3592891;-51.66406281;-49.71327695;-0.013730293;7.638467545;-0.013388933;6.78223834;13820935.95;0;;;;0;
187.9658346;-52.04342834;-50.08329461;-0.013718354;7.676914687;-0.013383354;6.800203772;13820935.95;0;;;;0;
189.5723802;-52.42246653;-50.45316038;-0.013706607;7.715065936;-0.013377942;6.817780207;13820935.95;0;;;;0;
191.1789258;-52.80118263;-50.8228788;-0.013695049;7.75292532;-0.013372691;6.834979671;13820935.95;0;;;;0;
192.7854714;-53.17958179;-51.19245423;-0.013683674;7.79049695;-0.013367594;6.85181447;13820935.95;0;;;;0;
194.392017;-53.55766903;-51.56189083;-0.013672479;7.827785042;-0.013362646;6.868297191;13820935.95;0;;;;0;
195.9985626;-53.93544926;-51.93119262;-0.01366146;7.864793938;-0.013357839;6.884440715;13820935.95;0;;;;0;
197.6051082;-54.31292725;-52.30036342;-0.013650611;7.901528132;-0.013353168;6.900258216;13820935.95;0;;;;0;
199.2116538;-54.69010769;-52.6694069;-0.01363993;7.937992292;-0.013348626;6.915763169;13820935.95;0;;;;0;
200.8181994;-55.06699513;-53.03832655;-0.013629411;7.974191285;-0.013344207;6.930969358;13820935.95;0;;;;0;
202.424745;-55.44359402;-53.4071257;-0.013619051;8.010130196;-0.013339905;6.945890877;13820935.95;0;;;;0;
204.0312906;-55.81990868;-53.7758075;-0.013608846;8.045814358;-0.013335715;6.960542138;13820935.95;0;;;;0;
205.6378362;-56.19594335;-54.14437494;-0.013598791;8.081249371;-0.013331631;6.974937879;13820935.95;0;;;;0;
207.2443818;-56.57170213;-54.51283087;-0.013588884;8.116441123;-0.013327645;6.989093164;13820935.95;0;;;;0;
208.8509274;-56.94718902;-54.88117794;-0.013579119;8.151395822;-0.013323754;7.003023393;13820935.95;0;;;;0;
210.457473;-57.32240791;-55.24941867;-0.013569492;8.186120009;-0.01331995;7.016744306;13820935.95;0;;;;0;
212.0640186;-57.69736259;-55.61755541;-0.013560001;8.220620586;-0.013316228;7.03027199;13820935.95;0;;;;0;
213.6705642;-58.07205673;-55.98559034;-0.01355064;8.254904837;-0.013312583;7.043622881;13820935.95;0;;;;0;
215.2771098;-58.44649386;-56.35352549;-0.013541406;8.288980452;-0.013309009;7.056813773;13820935.95;0;;;;0;
216.8836554;-58.82067746;-56.72136275;-0.013532294;8.322855546;-0.013305499;7.069861823;13820935.95;0;;;;0;
218.490201;-59.19461084;-57.08910383;-0.013523301;8.35653868;-0.013302049;7.082784554;13820935.95;0;;;;0;
220.0967466;-59.56829722;-57.45675029;-0.013514422;8.390038885;-0.013298652;7.095599864;13820935.95;0;;;;0;
221.7032921;-59.94173971;-57.82430355;-0.013505654;8.42336568;-0.013295304;7.108326029;13820935.95;0;;;;0;
223.3098377;-60.3149413;-58.19176485;-0.013496991;8.456529093;-0.013291998;7.120981708;13820935.95;0;;;;0;
224.9163833;-60.68790485;-58.5591353;-0.01348843;8.489539678;-0.013288729;7.133585951;13820935.95;0;;;;0;
226.5229289;-61.06063313;-58.92641585;-0.013479967;8.522408537;-0.013285492;7.146158203;13820935.95;0;;;;0;
228.1294745;-61.43312875;-59.29360728;-0.013471597;8.555147336;-0.013282281;7.15871831;13820935.95;0;;;;0;
229.7360201;-61.80539425;-59.66071025;-0.013463315;8.587768324;-0.01327909;7.171286521;13820935.95;0;;;;0;
231.3425657;-62.17743199;-60.02772524;-0.013455118;8.620284347;-0.013275914;7.183883498;13820935.95;0;;;;0;
232.9491113;-62.54924425;-60.39465258;-0.013447;8.652708868;-0.013272748;7.196530321;13820935.95;0;;;;0;
234.5556569;-62.92083317;-60.76149248;-0.013438957;8.685055981;-0.013269586;7.209248489;13820935.95;0;;;;0;
236.1622025;-63.29220075;-61.12824495;-0.013430985;8.717340425;-0.013266422;7.22205993;13820935.95;0;;;;0;
237.7687481;-63.66334888;-61.4949099;-0.013423078;8.7495776;-0.013263252;7.234987003;13820935.95;0;;;;0;
239.3752937;-64.0342793;-61.86148704;-0.013415232;8.781783579;-0.013260069;7.248052507;13820935.95;0;;;;0;
240.9818393;-64.40499363;-62.22797597;-0.013407442;8.813975121;-0.013256868;7.26127968;13820935.95;0;;;;0;
242.5883849;-64.77549335;-62.59437611;-0.013399703;8.846169685;-0.013253644;7.274692212;13820935.95;0;;;;0;
244.1949305;-65.1457798;-62.96068675;-0.01339201;8.878385438;-0.013250391;7.288314245;13820935.95;0;;;;0;
245.8014761;-65.51585418;-63.32690701;-0.013384358;8.910641268;-0.013247104;7.302170378;13820935.95;0;;;;0;
247.4080217;-65.88571756;-63.69303588;-0.013376742;8.942956796;-0.013243777;7.316285675;13820935.95;0;;;;0;
249.0145673;-66.25537084;-64.05907218;-0.013369156;8.97535238;-0.013240405;7.330685669;13820935.95;0;;;;0;
250.6211129;-66.6248148;-64.4250146;-0.013361596;9.007849128;-0.013236983;7.345396367;13820935.95;0;;;;0;
252.2276585;-66.99405007;-64.79086164;-0.013354055;9.040468904;-0.013233505;7.360444254;13820935.95;0;;;;0;
253.8342041;-67.36307711;-65.1566117;-0.013346529;9.073234337;-0.013229964;7.375856298;13820935.95;0;;;;0;
255.4407496;-67.73189626;-65.52226299;-0.013339012;9.106168824;-0.013226357;7.391659959;13820935.95;0;;;;0;
257.0472952;-68.10050768;-65.88781359;-0.013331498;9.139296541;-0.013222678;7.407883188;13820935.95;0;;;;0;
258.6538408;-68.46891138;-66.2532614;-0.013323982;9.172642444;-0.01321892;7.424554437;13820935.95;0;;;;0;
260.2603864;-68.83710722;-66.61860421;-0.013316458;9.206232276;-0.013215079;7.441702661;13820935.95;0;;;;0;
261.866932;-69.20509489;-66.98383961;-0.01330892;9.24009257;-0.013211148;7.459357323;13820935.95;0;;;;0;
263.4734776;-69.57287394;-67.34896508;-0.013301362;9.274250654;-0.013207123;7.477548401;13820935.95;0;;;;0;
265.0800232;-69.94044372;-67.71397792;-0.013293778;9.308734652;-0.013202998;7.49630639;13820935.95;0;;;;0;
266.6865688;-70.30780345;-68.07887528;-0.013286162;9.343573488;-0.013198767;7.515662309;13820935.95;0;;;;0;
268.2931144;-70.67495217;-68.44365416;-0.013278509;9.378796888;-0.013194425;7.535647707;13820935.95;0;;;;0;
269.89966;-71.04188874;-68.8083114;-0.013270812;9.41443538;-0.013189966;7.556294661;13820935.95;0;;;;0;
271.5062056;-71.40861186;-69.1728437;-0.013263064;9.450520296;-0.013185384;7.577635791;13820935.95;0;;;;0;
273.1127512;-71.77512007;-69.53724759;-0.013255261;9.487083772;-0.013180674;7.599704254;13820935.95;0;;;;0;
