Density;f;f0;u;P;T
0.000100000000000;-0.025468189748752;-0.025468137070973;300.000000000000000
0.017429808997232;-2.200003732498579;-2.198106305682112;300.000000000000000
0.034759617994464;-3.796308951185810;-3.790586449429082;300.000000000000000
0.052089426991695;-5.174768247267541;-5.163042393682988;300.000000000000000
0.069419235988927;-6.413872514793777;-6.394340292510205;300.000000000000000
0.086749044986159;-7.551004374084073;-7.521998656379490;300.000000000000000
0.104078853983391;-8.608187519659131;-8.568129996317976;300.000000000000000
0.121408662980623;-9.599969135168898;-9.547349418386494;300.000000000000000
0.138738471977854;-10.536679539885062;-10.470044990550926;300.000000000000000
0.156068280975086;-11.426031931840459;-11.343983128156756;300.000000000000000
0.173398089972318;-12.274002607412630;-12.175190886172459;300.000000000000000
0.190727898969550;-13.085356312266347;-12.968481685024372;300.000000000000000
0.208057707966782;-13.863979389008527;-13.727788294324464;300.000000000000000
0.225387516964014;-14.613101233595330;-14.456384081545462;300.000000000000000
0.242717325961245;-15.335447194819142;-15.157035807962419;300.000000000000000
0.260047134958477;-16.033347501367320;-15.832112565624509;300.000000000000000
0.277376943955709;-16.708816941740576;-16.483665549337154;300.000000000000000
0.294706752952941;-17.363614484933255;-17.113487817531304;300.000000000000000
0.312036561950173;-17.999288775538705;-17.723159949963577;300.000000000000000
0.329366370947404;-18.617213450402492;-18.314085532806534;300.000000000000000
0.346696179944636;-19.218614971198807;-18.887519155978861;300.000000000000000
0.364025988941868;-19.804594854616649;-19.444588799530834;300.000000000000000
0.381355797939100;-20.376147641274510;-19.986313948134384;300.000000000000000
0.398685606936332;-20.934175576787432;-20.513620406594256;300.000000000000000
0.416015415933563;-21.479500723218766;-21.027352534904431;300.000000000000000
0.433345224930795;-22.012875038780237;-21.528283441365719;300.000000000000000
0.450675033928027;-22.534988834028496;-22.017123542789484;300.000000000000000
0.468004842925259;-23.046477918246612;-22.494527806257199;300.000000000000000
0.485334651922491;-23.547929679753899;-22.961101916911378;300.000000000000000
0.502664460919722;-24.039888291490215;-23.417407563788714;300.000000000000000
0.519994269916954;-24.522859193510527;-23.863966995925757;300.000000000000000
0.537324078914186;-24.997312973605332;-24.301266970483223;300.000000000000000
0.554653887911418;-25.463688743726649;-24.729762191043676;300.000000000000000
0.571983696908650;-25.922397091523493;-25.149878315813453;300.000000000000000
0.589313505905882;-26.373822671819052;-25.562014600948487;300.000000000000000
0.606643314903113;-26.818326491375323;-25.966546232703518;300.000000000000000
0.623973123900345;-27.256247931105818;-26.363826392890363;300.000000000000000
0.641302932897577;-27.687906542500855;-26.754188094710653;300.000000000000000
0.658632741894809;-28.113603649036424;-27.137945820013005;300.000000000000000
0.675962550892041;-28.533623778450064;-27.515396984118563;300.000000000000000
0.693292359889272;-28.948235947759475;-27.886823250333801;300.000000000000000
0.710622168886504;-29.357694819595558;-28.252491712949606;300.000000000000000
0.727951977883736;-29.762241745682868;-28.612655964772820;300.000000000000000
0.745281786880968;-30.162105711020775;-28.967557062942863;300.000000000000000
0.762611595878200;-30.557504190411013;-29.317424404865992;300.000000000000000
0.779941404875432;-30.948643927375404;-29.662476524485349;300.000000000000000
0.797271213872663;-31.335721644155203;-30.002921817741989;300.000000000000000
0.814601022869895;-31.718924690339403;-30.338959204926375;300.000000000000000
0.831930831867127;-32.098431636695878;-30.670778736636549;300.000000000000000
0.849260640864359;-32.474412819948981;-30.998562149219328;300.000000000000000
0.866590449861591;-32.847030843536722;-31.322483374850947;300.000000000000000
0.883920258858822;-33.216441038770206;-31.642709010794690;300.000000000000000
0.901250067856054;-33.582791890292249;-31.959398751838872;300.000000000000000
0.918579876853286;-33.946225429277291;-32.272705789456609;300.000000000000000
0.935909685850518;-34.306877597421391;-32.582777180827648;300.000000000000000
0.953239494847750;-34.664878584428443;-32.889754190513486;300.000000000000000
0.970569303844981;-35.020353141400427;-33.193772607272599;300.000000000000000
0.987899112842213;-35.373420872279340;-33.494963038235795;300.000000000000000
1.005228921839445;-35.724196505259314;-33.793451182428193;300.000000000000000
1.022558730836677;-36.072790145888270;-34.089358085418681;300.000000000000000
1.039888539833909;-36.419307513400526;-34.382800376696515;300.000000000000000
1.057218348831140;-36.763850161667776;-34.673890491214827;300.000000000000000
1.074548157828372;-37.106515686017083;-34.962736876399035;300.000000000000000
1.091877966825604;-37.447397917043261;-35.249444185792576;300.000000000000000
1.109207775822836;-37.786587102435121;-35.534113460400761;300.000000000000000
1.126537584820068;-38.124170077738327;-35.816842298693899;300.000000000000000
1.143867393817299;-38.460230426892338;-36.097725016142270;300.000000000000000
1.161197202814531;-38.794848633302358;-36.376852795076147;300.000000000000000
1.178527011811763;-39.128102222138480;-36.654313825592915;300.000000000000000
1.195856820808995;-39.460065894493717;-36.930193438169802;300.000000000000000
1.213186629806227;-39.790811653976668;-37.204574228583255;300.000000000000000
1.230516438803459;-40.120408926265846;-37.477536175684619;300.000000000000000
1.247846247800690;-40.448924672107985;-37.749156752535349;300.000000000000000
1.265176056797922;-40.776423494202497;-38.019511031362754;300.000000000000000
1.282505865795154;-41.102967738378190;-38.288671782759842;300.000000000000000
1.299835674792386;-41.428617589435390;-38.556709569518048;300.000000000000000
1.317165483789618;-41.753431161997248;-38.823692835450785;300.000000000000000
1.334495292786849;-42.077464586686894;-39.089687989537389;300.000000000000000
1.351825101784081;-42.400772091922832;-39.354759485691368;300.000000000000000
1.369154910781313;-42.723406081602860;-39.618969898433527;300.000000000000000
1.386484719778545;-43.045417208926203;-39.882379994729114;300.000000000000000
1.403814528775777;-43.366854446585897;-40.145048802228814;300.000000000000000
1.421144337773008;-43.687765153545676;-40.407033674135654;300.000000000000000
1.438474146770240;-44.008195138601216;-40.668390350903444;300.000000000000000
1.455803955767472;-44.328188720911022;-40.929173018957776;300.000000000000000
1.473133764764704;-44.647788787669278;-41.189434366616815;300.000000000000000
1.490463573761936;-44.967036849081808;-41.449225637376550;300.000000000000000
1.507793382759168;-45.285973090794648;-41.708596680713811;300.000000000000000
1.525123191756399;-45.604636423915679;-41.967596000549747;300.000000000000000
1.542453000753631;-45.923064532759689;-42.226270801506615;300.000000000000000
1.559782809750863;-46.241293920439610;-42.484667033082026;300.000000000000000
1.577112618748095;-46.559359952418440;-42.742829431856151;300.000000000000000
1.594442427745327;-46.877296898129281;-43.000801561840198;300.000000000000000
1.611772236742558;-47.195137970764392;-43.258625853067016;300.000000000000000
1.629102045739790;-47.512915365327800;-43.516343638518443;300.000000000000000
1.646431854737022;-47.830660295040829;-43.773995189477880;300.000000000000000
1.663761663734254;-48.148403026183679;-44.031619749390899;300.000000000000000
1.681091472731486;-48.466172911452674;-44.289255566311731;300.000000000000000
1.698421281728717;-48.783998421906546;-44.546939924008420;300.000000000000000
1.715751090725949;-49.101907177572890;-44.804709171795182;300.000000000000000
1.733080899723181;-49.419925976779737;-45.062598753156131;300.000000000000000
1.750410708720413;-49.738080824275897;-45.320643233221006;300.000000000000000
1.767740517717645;-50.056396958197865;-45.578876325149558;300.000000000000000
1.785070326714876;-50.374898875940282;-45.837330915478155;300.000000000000000
1.802400135712108;-50.693610358981772;-46.096039088479095;300.000000000000000
1.819729944709340;-51.012554496716753;-46.355032149579877;300.000000000000000
1.837059753706572;-51.331753709340383;-46.614340647887495;300.000000000000000
1.854389562703804;-51.651229769831545;-46.873994397859647;300.000000000000000
1.871719371701036;-51.971003825076423;-47.134022500163042;300.000000000000000
1.889049180698267;-52.291096416173104;-47.394453361756206;300.000000000000000
1.906378989695499;-52.611527497955514;-47.655314715232500;300.000000000000000
1.923708798692731;-52.932316457773098;-47.916633637456940;300.000000000000000
1.941038607689963;-53.253482133560766;-48.178436567528607;300.000000000000000
1.958368416687195;-53.575042831231954;-48.440749324098853;300.000000000000000
1.975698225684426;-53.897016341426074;-48.703597122073646;300.000000000000000
1.993028034681658;-54.219419955639928;-48.967004588727278;300.000000000000000
2.010357843678890;-54.542270481771304;-49.230995779252851;300.000000000000000
2.027687652676122;-54.865584259101631;-49.495594191773918;300.000000000000000
2.045017461673354;-55.189377172743164;-49.760822781840297;300.000000000000000
2.062347270670585;-55.513664667574936;-50.026703976429900;300.000000000000000
2.079677079667817;-55.838461761690532;-50.293259687477331;300.000000000000000
2.097006888665049;-56.163783059379746;-50.560511324949040;300.000000000000000
2.114336697662281;-56.489642763664882;-50.828479809483618;300.000000000000000
2.131666506659513;-56.816054688411562;-51.097185584615296;300.000000000000000
2.148996315656745;-57.143032270033061;-51.366648628597346;300.000000000000000
2.166326124653976;-57.470588578805980;-51.636888465841658;300.000000000000000
2.183655933651208;-57.798736329814474;-51.907924177989877;300.000000000000000
2.200985742648440;-58.127487893539040;-52.179774414630600;300.000000000000000
2.218315551645672;-58.456855306105730;-52.452457403676668;300.000000000000000
2.235645360642903;-58.786850279210022;-52.725990961415789;300.000000000000000
2.252975169640135;-59.117484209729561;-53.000392502247173;300.000000000000000
2.270304978637367;-59.448768189038965;-53.275679048116253;300.000000000000000
2.287634787634599;-59.780713012039193;-53.551867237659025;300.000000000000000
2.304964596631831;-60.113329185913550;-53.828973335066969;300.000000000000000
2.322294405629063;-60.446626938621627;-54.107013238683095;300.000000000000000
2.339624214626295;-60.780616227141785;-54.386002489339162;300.000000000000000
2.356954023623526;-61.115306745472694;-54.665956278443623;300.000000000000000
2.374283832620758;-61.450707932403262;-54.946889455829442;300.000000000000000
2.391613641617990;-61.786828979060381;-55.228816537370598;300.000000000000000
2.408943450615222;-62.123678836242995;-55.511751712375649;300.000000000000000
2.426273259612453;-62.461266221550844;-55.795708850766367;300.000000000000000
2.443603068609685;-62.799599626315569;-56.080701510049067;300.000000000000000
2.460932877606917;-63.138687322341568;-56.366742942086084;300.000000000000000
2.478262686604149;-63.478537368463641;-56.653846099674375;300.000000000000000
2.495592495601381;-63.819157616927832;-56.942023642937961;300.000000000000000
2.512922304598613;-64.160555719601859;-57.231287945540771;300.000000000000000
2.530252113595844;-64.502739134020871;-57.521651100725947;300.000000000000000
2.547581922593076;-64.845715129274211;-57.813124927187701;300.000000000000000
2.564911731590308;-65.189490791738194;-58.105720974781278;300.000000000000000
2.582241540587540;-65.534073030660011;-58.399450530076592;300.000000000000000
2.599571349584771;-65.879468583597443;-58.694324621760764;300.000000000000000
2.616901158582003;-66.225684021718507;-58.990354025894547;300.000000000000000
2.634230967579235;-66.572725754965475;-59.287549271027530;300.000000000000000
2.651560776576467;-66.920600037086771;-59.585920643176742;300.000000000000000
2.668890585573699;-67.269312970540952;-59.885478190673140;300.000000000000000
2.686220394570931;-67.618870511275503;-60.186231728880216;300.000000000000000
2.703550203568163;-67.969278473384421;-60.488190844788939;300.000000000000000
2.720880012565394;-68.320542533647043;-60.791364901492869;300.000000000000000
2.738209821562626;-68.672668235951292;-61.095763042547425;300.000000000000000
2.755539630559858;-69.025660995604028;-61.401394196216785;300.000000000000000
2.772869439557090;-69.379526103530964;-61.708267079612071;300.000000000000000
2.790199248554321;-69.734268730368541;-62.016390202724246;300.000000000000000
2.807529057551553;-70.089893930450145;-62.325771872354821;300.000000000000000
2.824858866548785;-70.446406645688626;-62.636420195947721;300.000000000000000
2.842188675546017;-70.803811709357277;-62.948343085325249;300.000000000000000
2.859518484543249;-71.162113849771089;-63.261548260330997;300.000000000000000
2.876848293540481;-71.521317693870145;-63.576043252382703;300.000000000000000
2.894178102537712;-71.881427770706722;-63.891835407937620;300.000000000000000
2.911507911534944;-72.242448514838017;-64.208931891873007;300.000000000000000
2.928837720532176;-72.604384269625584;-64.527339690784402;300.000000000000000
2.946167529529408;-72.967239290443530;-64.847065616203977;300.000000000000000
2.963497338526639;-73.331017747796182;-65.168116307741343;300.000000000000000
2.980827147523871;-73.695723730347282;-65.490498236149165;300.000000000000000
2.998156956521103;-74.061361247861413;-65.814217706315617;300.000000000000000
3.015486765518335;-74.427934234059350;-66.139280860185963;300.000000000000000
3.032816574515567;-74.795446549388060;-66.465693679615114;300.000000000000000
3.050146383512799;-75.163901983707049;-66.793461989153300;300.000000000000000
3.067476192510031;-75.533304258891803;-67.122591458766664;300.000000000000000
3.084806001507262;-75.903657031355479;-67.453087606494563;300.000000000000000
3.102135810504494;-76.274963894490028;-67.784955801045541;300.000000000000000
3.119465619501726;-76.647228381027816;-68.118201264333436;300.000000000000000
3.136795428498958;-77.020453965324677;-68.452829073955485;300.000000000000000
3.154125237496189;-77.394644065565387;-68.788844165613938;300.000000000000000
3.171455046493421;-77.769802045892817;-69.126251335482706;300.000000000000000
3.188784855490653;-78.145931218461442;-69.465055242520577;300.000000000000000
3.206114664487885;-78.523034845416504;-69.805260410732529;300.000000000000000
3.223444473485117;-78.901116140799687;-70.146871231380317;300.000000000000000
3.240774282482349;-79.280178272382244;-70.489891965143983;300.000000000000000
3.258104091479580;-79.660224363426693;-70.834326744235341;300.000000000000000
3.275433900476812;-80.041257494378058;-71.180179574464873;300.000000000000000
3.292763709474044;-80.423280704485620;-71.527454337263180;300.000000000000000
3.310093518471276;-80.806296993356256;-71.876154791658308;300.000000000000000
3.327423327468508;-81.190309322440285;-72.226284576209821;300.000000000000000
3.344753136465739;-81.575320616450952;-72.577847210901140;300.000000000000000
3.362082945462971;-81.961333764718589;-72.930846098990841;300.000000000000000
3.379412754460203;-82.348351622480365;-73.285284528824263;300.000000000000000
3.396742563457435;-82.736377012106843;-73.641165675606246;300.000000000000000
3.414072372454667;-83.125412724266312;-73.998492603136071;300.000000000000000
3.431402181451899;-83.515461519028079;-74.357268265505596;300.000000000000000
3.448731990449130;-83.906526126905504;-74.717495508761303;300.000000000000000
3.466061799446362;-84.298609249840467;-75.079177072531579;300.000000000000000
3.483391608443594;-84.691713562129621;-75.442315591619575;300.000000000000000
3.500721417440826;-85.085841711294208;-75.806913597562911;300.000000000000000
3.518051226438057;-85.480996318894171;-76.172973520160809;300.000000000000000
3.535381035435289;-85.877179981287824;-76.540497688969594;300.000000000000000
3.552710844432521;-86.274395270338317;-76.909488334767218;300.000000000000000
3.570040653429753;-86.672644734067802;-77.279947590987646;300.000000000000000
3.587370462426985;-87.071930897260671;-77.651877495125731;300.000000000000000
3.604700271424217;-87.472256262017098;-78.025279990113447;300.000000000000000
3.622030080421448;-87.873623308257663;-78.400156925667986;300.000000000000000
3.639359889418680;-88.276034494180820;-78.776510059612534;300.000000000000000
3.656689698415912;-88.679492256673797;-79.154341059170235;300.000000000000000
3.674019507413144;-89.083999011678571;-79.533651502232090;300.000000000000000
3.691349316410376;-89.489557154513861;-79.914442878599360;300.000000000000000
3.708679125407607;-89.896169060154421;-80.296716591201090;300.000000000000000
3.726008934404839;-90.303837083468778;-80.680473957287148;300.000000000000000
3.743338743402071;-90.712563559416651;-81.065716209597767;300.000000000000000
3.760668552399303;-91.122350803207183;-81.452444497509617;300.000000000000000
3.777998361396535;-91.533201110419228;-81.840659888159280;300.000000000000000
3.795328170393767;-91.945116757084932;-82.230363367544584;300.000000000000000
3.812657979390998;-92.358099999737576;-82.621555841604234;300.000000000000000
3.829987788388230;-92.772153075425067;-83.014238137276166;300.000000000000000
3.847317597385462;-93.187278201690233;-83.408411003535349;300.000000000000000
3.864647406382694;-93.603477576518927;-83.804075112411240;300.000000000000000
3.881977215379925;-94.020753378257254;-84.201231059985361;300.000000000000000
3.899307024377157;-94.439107765499031;-84.599879367369709;300.000000000000000
3.916636833374389;-94.858542876944497;-85.000020481665985;300.000000000000000
3.933966642371621;-95.279060831231689;-85.401654776906511;300.000000000000000
3.951296451368853;-95.700663726741254;-85.804782554976867;300.000000000000000
3.968626260366085;-96.123353641376013;-86.209404046520817;300.000000000000000
3.985956069363316;-96.547132632316305;-86.615519411827975;300.000000000000000
4.003285878360549;-96.972002735752326;-87.023128741704397;300.000000000000000
4.020615687357780;-97.397965966594242;-87.432232058326520;300.000000000000000
4.037945496355012;-97.825024318161454;-87.842829316078962;300.000000000000000
4.055275305352244;-98.253179761851783;-88.254920402376300;300.000000000000000
4.072605114349476;-98.682434246791743;-88.668505138469243;300.000000000000000
4.089934923346707;-99.112789699468991;-89.083583280235615;300.000000000000000
4.107264732343939;-99.544248023347663;-89.500154518956307;300.000000000000000
4.124594541341171;-99.976811098467849;-89.918218482076668;300.000000000000000
4.141924350338403;-100.410480781029960;-90.337774733953466;300.000000000000000
4.159254159335634;-100.845258902965242;-90.758822776587905;300.000000000000000
4.176583968332866;-101.281147271492799;-91.181362050344831;300.000000000000000
4.193913777330098;-101.718147668664585;-91.605391934658371;300.000000000000000
4.211243586327330;-102.156261850899071;-92.030911748724591;300.000000000000000
4.228573395324561;-102.595491548504143;-92.457920752180939;300.000000000000000
4.245903204321793;-103.035838465190707;-92.886418145773234;300.000000000000000
4.263233013319025;-103.477304277577005;-93.316403072010019;300.000000000000000
4.280562822316258;-103.919890634685373;-93.747874615804932;300.000000000000000
4.297892631313489;-104.363599157431480;-94.180831805106976;300.000000000000000
4.315222440310721;-104.808431438107036;-94.615273611519129;300.000000000000000
4.332552249307953;-105.254389039857045;-95.051198950905430;300.000000000000000
4.349882058305185;-105.701473496151806;-95.488606683986944;300.000000000000000
4.367211867302417;-106.149686310254751;-95.927495616926421;300.000000000000000
4.384541676299648;-106.599028954686645;-96.367864501902432;300.000000000000000
4.401871485296880;-107.049502870686936;-96.809712037672597;300.000000000000000
4.419201294294112;-107.501109467672578;-97.253036870126564;300.000000000000000
