Density;f;f0;u;P;u_0;P_0;T
0.000100000000000;0.000000000000000;0.000000000000000;0.000000000000000;0.000000000000000;0.000000000000000;0.000000000000000;568.799999999999955
0.000804313300907;-0.254925039954483;-0.254891990220887;-293.085620718825112;0.019192376905688;-293.038428889794602;0.019197284187876;568.799999999999955
0.001508626601814;-0.460922971605258;-0.460856022594575;-291.724179748485994;0.020820113644204;-291.674874869109317;0.020827547286148;568.799999999999955
0.002212939902722;-0.665642395277619;-0.665539562657231;-289.455111464587446;0.025095629070902;-289.402284834633974;0.025109698607864;568.799999999999955
0.002917253203629;-0.868444056982361;-0.868302364253339;-286.278415867129524;0.033297431164196;-286.220658786368404;0.033324230464056;568.799999999999955
0.003621566504536;-1.068688702730276;-1.068504181227382;-282.194092956112172;0.046704027902498;-282.129996724312718;0.046751635165755;568.799999999999955
0.004325879805443;-1.265737078532159;-1.265504767423845;-277.202142731535389;0.066593927264221;-277.130298648466805;0.066672405023994;568.799999999999955
0.005030193106350;-1.458949930398802;-1.458663876687211;-271.302565193399232;0.094245637227779;-271.221564558830835;0.094367032349804;568.799999999999955
0.005734506407258;-1.647688004341000;-1.647341262861965;-264.495360341703645;0.130937665771585;-264.403794455404636;0.131116009454219;568.799999999999955
0.006438819708165;-1.831312046369544;-1.830896679792590;-256.780528176448684;0.177948520874052;-256.676988338188323;0.178199828648270;568.799999999999955
0.007143133009072;-2.009182802495230;-2.008689881323571;-248.158068697634263;0.236556710513594;-248.041146207181782;0.236898982242989;568.799999999999955
0.007847446309979;-2.180863827082799;-2.180283664210438;-239.491837608489647;0.301464489771911;-239.361122854072647;0.301910103916759;568.799999999999955
0.008551759610886;-2.346729907912795;-2.346052996852905;-231.645690612244039;0.365751646899110;-231.501773070548154;0.366305484059594;568.799999999999955
0.009256072911794;-2.507358641119707;-2.506575890561734;-224.619627708897468;0.428262989626208;-224.463096856608388;0.428929100049969;568.799999999999955
0.009960386212701;-2.663327622838026;-2.662430356647688;-218.413648898449907;0.487843325684223;-218.245094212253321;0.488624929266363;568.799999999999955
0.010664699513608;-2.815214449202245;-2.814194406421526;-213.027754180901354;0.543337462804172;-212.847765137483009;0.544236949087251;568.799999999999955
0.011369012814515;-2.963596716346855;-2.962446051194012;-208.461943556251867;0.593590208717072;-208.271109632297424;0.594609136891112;568.799999999999955
0.012073326115422;-3.109052020406345;-3.107763302275905;-204.716217024501333;0.637446371153942;-204.515127696696567;0.638585470056421;568.799999999999955
0.012777639416330;-3.252157957515209;-3.250724170977970;-201.790574585649836;0.673750757845800;-201.579819330680408;0.675009925961656;568.799999999999955
0.013481952717237;-3.393492123807937;-3.391906668610964;-199.685016239697347;0.701348176523662;-199.465184534248976;0.702726481985295;568.799999999999955
0.014186266018144;-3.533632115419019;-3.531888806485652;-198.399541986643897;0.719083434918546;-198.171223307402300;0.720579115505812;568.799999999999955
0.014890579319051;-3.673047823452150;-3.671140818729213;-197.475385689349650;0.732524929284647;-197.238862180520925;0.734139896630745;568.799999999999955
0.015594892619958;-3.811778318887831;-3.809701830734495;-196.453781210674833;0.748102696122543;-196.209027683985568;0.749843112936282;568.799999999999955
0.016299205920866;-3.949754967675768;-3.947503190710770;-195.334728550619417;0.765954003532823;-195.081719817796227;0.767826068003888;568.799999999999955
0.017003519221773;-4.086909135765665;-4.084476246867304;-194.118227709183429;0.786216119616080;-193.856938581952846;0.788226065415025;568.799999999999955
0.017707832522680;-4.223172189107225;-4.220552347413367;-192.804278686366843;0.809026312472905;-192.534683976455483;0.811180408751158;568.799999999999955
0.018412145823587;-4.358475493650154;-4.355662840558225;-191.392881482169685;0.834521850203887;-191.114956001304080;0.836826401593747;568.799999999999955
0.019116459124494;-4.492750415344156;-4.489739074511149;-189.884036096591956;0.862840000909621;-189.597754656498694;0.865301347524258;568.799999999999955
0.019820772425402;-4.625928320138936;-4.622712397481407;-188.277742529633628;0.894118032690695;-187.983079942039268;0.896742550124153;568.799999999999955
0.020525085726309;-4.757940573984197;-4.754514157678266;-186.574000781294728;0.928493213647700;-186.270931857925859;0.931287312974896;568.799999999999955
0.021229399027216;-4.888718542829643;-4.885075703310996;-184.772810851575258;0.966102811881228;-184.461310404158439;0.969072939657948;568.799999999999955
0.021933712328123;-5.018214758798704;-5.014349560739135;-182.964329381115704;1.005127791845315;-182.644423235101868;1.008279323164412;568.799999999999955
0.022638025629031;-5.146466418709696;-5.142372968923308;-181.238713010556609;1.043579788604212;-180.910478005121064;1.046916931283218;568.799999999999955
0.023342338929938;-5.273531885554661;-5.269204344974407;-179.595961739897945;1.081342076173839;-179.259474714215969;1.084868929792580;568.799999999999955
0.024046652230845;-5.399469522325639;-5.394902106003327;-178.036075569139769;1.118297928570112;-177.691413362386612;1.122018484470709;568.799999999999955
0.024750965531752;-5.524337692014672;-5.519524669120963;-176.559054498281995;1.154330619808952;-176.206293949633022;1.158248761095815;568.799999999999955
0.025455278832659;-5.648194757613799;-5.643130451438207;-175.164898527324709;1.189323423906274;-174.804116475955141;1.193442925446113;568.799999999999955
0.026159592133567;-5.771099082115063;-5.765777870065955;-173.853607656267855;1.223159614877998;-173.484880941353026;1.227484143299812;568.799999999999955
0.026863905434474;-5.893109028510503;-5.887525342115101;-172.625181885111459;1.255722466740043;-172.248587345826621;1.260255580435127;568.799999999999955
0.027568218735381;-6.014282959792162;-6.008431284696537;-171.479621213855523;1.286895253508326;-171.095235689375983;1.291640402630267;568.799999999999955
0.028272532036288;-6.134679238952079;-6.128554114921159;-170.416925642500019;1.316561249198765;-170.024825972001054;1.321521775663445;568.799999999999955
0.028976845337195;-6.254347760204047;-6.247943775279837;-169.401022680705239;1.345640526022533;-169.001260820504569;1.350820378693068;568.799999999999955
0.029681158638103;-6.373304542648870;-6.366616309783347;-168.395839838131451;1.375120906416784;-167.988442861689151;1.380524687837728;568.799999999999955
0.030385471939010;-6.491557136609102;-6.484579287822442;-167.401377114778654;1.404987289736408;-166.986372095554799;1.410619564315923;568.799999999999955
0.031089785239917;-6.609113092407298;-6.601840278787876;-166.417634510646849;1.435224575336298;-165.995048522101570;1.441089869346146;568.799999999999955
0.031794098540824;-6.725979960366011;-6.718406852070399;-165.444612025736035;1.465817662571341;-165.014472141329406;1.471920464146891;568.799999999999955
0.032498411841731;-6.842165290807799;-6.834286577060766;-164.482309660046212;1.496751450796430;-164.044642953238309;1.503096209936655;568.799999999999955
0.033202725142639;-6.957676634055212;-6.949487023149727;-163.530727413577381;1.528010839366456;-163.085560957828335;1.534601967933928;568.799999999999955
0.033907038443546;-7.072521540430808;-7.064015759728037;-162.589865286329541;1.559580727636307;-162.137226155099427;1.566422599357209;568.799999999999955
0.034611351744453;-7.186707560257142;-7.177880356186450;-161.659723278302693;1.591446014960878;-161.199638545051585;1.598542965424993;568.799999999999955
0.035315665045360;-7.300242243856766;-7.291088381915715;-160.740301389496835;1.623591600695056;-160.272798127684865;1.630947927355770;568.799999999999955
0.036019978346267;-7.413134070417559;-7.403648337239650;-159.835556092072466;1.655860801017506;-159.360670182630059;1.663480448014660;568.799999999999955
0.036724291647175;-7.525395234588688;-7.515572446214315;-158.949443858190165;1.688089501184312;-158.467219989518043;1.695976042802283;568.799999999999955
0.037428604948082;-7.637038859884641;-7.626873863828836;-158.081964687849847;1.720251454166497;-157.592447548348844;1.728408401740389;568.799999999999955
0.038132918248989;-7.748078069819909;-7.737565745072335;-157.233118581051571;1.752320412935080;-156.736352859122405;1.760751214850732;568.799999999999955
0.038837231549896;-7.858525987908980;-7.847661244933940;-156.402905537795306;1.784270130461084;-155.898935921838785;1.792978172155061;568.799999999999955
0.039541544850803;-7.968395737666342;-7.957173518402772;-155.591325558081053;1.816074359715531;-155.080196736497953;1.825062963675127;568.799999999999955
0.040245858151711;-8.077700442606488;-8.066115720467957;-154.798378641908840;1.847706853669440;-154.280135303099911;1.856979279432681;568.799999999999955
0.040950171452618;-8.186453226243904;-8.174501006118620;-154.024064789278640;1.879141365293834;-153.498751621644658;1.888700809449479;568.799999999999955
0.041654484753525;-8.294667212093081;-8.282342530343882;-153.268384000190480;1.910351647559734;-152.736045692132194;1.920201243747266;568.799999999999955
0.042358798054432;-8.402355523668508;-8.389653448132872;-152.531336274644332;1.941311453438161;-151.992017514562519;1.951454272347798;568.799999999999955
0.043063111355339;-8.509530289558658;-8.496445918901639;-151.808683757070554;1.972176036220426;-151.262426477246464;1.982615203633137;568.799999999999955
0.043767424656247;-8.616199658647947;-8.602728119773948;-151.096188591899534;2.003108608605957;-150.543031968494745;2.013847310569932;568.799999999999955
0.044471737957154;-8.722370784894775;-8.708507232300487;-150.393850779131270;2.034094862677958;-149.833833988307390;2.045136230056797;568.799999999999955
0.045176051258061;-8.828050822257538;-8.813790438031951;-149.701670318765764;2.065120490519626;-149.134832536684371;2.076467598992354;568.799999999999955
0.045880364558968;-8.933246924694638;-8.918584918519029;-149.019647210802987;2.096171184214167;-148.446027613625745;2.107827054275218;568.799999999999955
0.046584677859875;-9.037966246164473;-9.022897855312412;-148.347781455242966;2.127232635844780;-147.767419219131483;2.139200232804009;568.799999999999955
0.047288991160783;-9.142215940625443;-9.126736429962788;-147.686073052085703;2.158290537494667;-147.099007353201586;2.170572771477342;568.799999999999955
0.047993304461690;-9.246003162035947;-9.230107824020854;-147.034522001331197;2.189330581247029;-146.440792015836024;2.201930307193840;568.799999999999955
0.048697617762597;-9.349335064354383;-9.333019219037297;-146.393128302979420;2.220338459185069;-145.792773207034855;2.233258476852118;568.799999999999955
0.049401931063504;-9.452218801539152;-9.435477796562807;-145.761891957030400;2.251299863391986;-145.154950926798051;2.264542917350792;568.799999999999955
0.050106244364411;-9.554661336671048;-9.537490546501781;-145.139999926426526;2.282241033306864;-144.526508863843475;2.295809976234765;568.799999999999955
0.050810557665319;-9.656668869320448;-9.639063692173417;-144.526639174110102;2.313189735389629;-143.906630706889075;2.327087534219318;568.799999999999955
0.051514870966226;-9.758247408180123;-9.740203265250623;-143.921809700081127;2.344133952254735;-143.295316455934852;2.358363527958641;568.799999999999955
0.052219184267133;-9.859402961942843;-9.840915297406296;-143.325511504339630;2.375061666516636;-142.692566110980806;2.389625894106927;568.799999999999955
0.052923497568040;-9.960141539301382;-9.941205820313344;-142.737744586885640;2.405960860789791;-142.098379672026908;2.420862569318370;568.799999999999955
0.053627810868947;-10.060469148948512;-10.041080865644672;-142.158508947719099;2.436819517688660;-141.512757139073187;2.452061490247163;568.799999999999955
0.054332124169855;-10.160391799577003;-10.140546465073179;-141.587804586840008;2.467625619827696;-140.935698512119615;2.483210593547497;568.799999999999955
0.055036437470762;-10.259915499879625;-10.239608650271773;-141.025631504248423;2.498367149821354;-140.367203791166219;2.514297815873568;568.799999999999955
0.055740750771669;-10.359046258549153;-10.338273452913354;-140.471989699944316;2.529032090284095;-139.807272976212971;2.545311093879564;568.799999999999955
0.056445064072576;-10.457790084278356;-10.436546904670829;-139.926879173927659;2.559608423830373;-139.255906067259900;2.576238364219684;568.799999999999955
0.057149377373483;-10.556152736248892;-10.534434786692088;-139.389237141579770;2.590144621042774;-138.712035961029102;2.607128297311029;568.799999999999955
0.057853690674391;-10.654138975597965;-10.631941878024984;-138.858000818281909;2.620691148592798;-138.174595554242671;2.638031567770793;568.799999999999955
0.058558003975298;-10.751753313951653;-10.729072707192355;-138.333170204034104;2.651238983228268;-137.643584846900580;2.668939118553302;568.799999999999955
0.059262317276205;-10.849000262936048;-10.825831802717040;-137.814745298836300;2.681779101697021;-137.119003839002886;2.699841892612870;568.799999999999955
0.059966630577112;-10.945884334177233;-10.922223693121879;-137.302726102688553;2.712302480746878;-136.600852530549531;2.730730832903824;568.799999999999955
0.060670943878019;-11.042410039301295;-11.018252906929712;-136.797112615590834;2.742800097125674;-136.089130921540544;2.761596882380481;568.799999999999955
0.061375257178927;-11.138581889934317;-11.113923972663377;-136.297904837543172;2.773262927581230;-135.583839011975925;2.792430983997162;568.799999999999955
0.062079570479834;-11.234404397702388;-11.209241418845716;-135.805102768545510;2.803681948861383;-135.084976801855674;2.823224080708192;568.799999999999955
0.062783883780741;-11.329882074231591;-11.304209773999567;-135.318706408597905;2.834048137713957;-134.592544291179792;2.853967115467889;568.799999999999955
0.063488197081648;-11.425019431148014;-11.398833566647768;-134.838715757700328;2.864352470886782;-134.106541479948277;2.884651031230572;568.799999999999955
0.064192510382555;-11.519820838602801;-11.493117183075968;-134.364528207868659;2.894624466572022;-133.626362513382986;2.915305520052508;568.799999999999955
0.064896823683463;-11.614290100847343;-11.587064440621043;-133.895541151118749;2.924894774761366;-133.151401536705634;2.945961411887515;568.799999999999955
0.065601136984370;-11.708430880658087;-11.680679014382672;-133.431754587450655;2.955156069901911;-132.681658549916335;2.976611356536218;568.799999999999955
0.066305450285277;-11.802246840811481;-11.773964579460538;-132.973168516864291;2.985401026440762;-132.217133553015032;3.007248003799257;568.799999999999955
0.067009763586184;-11.895741644083973;-11.866924810954323;-132.519782939359743;3.015622318825018;-131.757826546001752;3.037864003477269;568.799999999999955
0.067714076887092;-11.988918953252018;-11.959563383963713;-132.071597854936925;3.045812621501788;-131.303737528876468;3.068452005370890;568.799999999999955
0.068418390187999;-12.081782431092057;-12.051883973588383;-131.628613263595923;3.075964608918168;-130.854866501639236;3.099004659280748;568.799999999999955
0.069122703488906;-12.174335740380542;-12.143890254928021;-131.190829165336680;3.106070955521265;-130.411213464289972;3.129514615007491;568.799999999999955
0.069827016789813;-12.266582543893922;-12.235585903082306;-130.758245560159224;3.136124335758177;-129.972778416828760;3.159974522351746;568.799999999999955
0.070531330090720;-12.358526504408646;-12.326974593150924;-130.330862448063527;3.166117424076011;-129.539561359255515;3.190377031114153;568.799999999999955
0.071235643391628;-12.450171172084458;-12.418059887180609;-129.908200141797124;3.196076953135222;-129.111080746178118;3.220748981238238;568.799999999999955
0.071939956692535;-12.541519646614285;-12.508844895006341;-129.489778954107635;3.226030556529887;-128.686855032204392;3.251118117091062;568.799999999999955
0.072644269993442;-12.632574915074354;-12.599332613410152;-129.075598884995031;3.255972260107564;-128.266884217334336;3.281478445108561;568.799999999999955
0.073348583294349;-12.723339964540889;-12.689526039174071;-128.665659934459285;3.285896089715804;-127.851168301567938;3.311823971726668;568.799999999999955
0.074052896595256;-12.813817782090116;-12.779428169080136;-128.259962102500424;3.315796071202156;-127.439707284905182;3.342148703381318;568.799999999999955
0.074757209896164;-12.904011354798255;-12.869041999910374;-127.858505389118434;3.345666230414171;-127.032501167346098;3.372446646508443;568.799999999999955
0.075461523197071;-12.993923669741532;-12.958370528446823;-127.461289794313331;3.375500593199401;-126.629549948890670;3.402711807543982;568.799999999999955
0.076165836497978;-13.083557713996173;-13.047416751471511;-127.068315318085084;3.405293185405400;-126.230853629538899;3.432938192923867;568.799999999999955
0.076870149798885;-13.172916474638404;-13.136183665766476;-126.679581960433723;3.435038032879715;-125.836412209290785;3.463119809084032;568.799999999999955
0.077574463099792;-13.262002938744445;-13.224674268113747;-126.295089721359233;3.464729161469899;-125.446225688146328;3.493250662460415;568.799999999999955
0.078278776400700;-13.350820011116477;-13.312891472874139;-125.914488157197596;3.494387947050676;-125.059942995560860;3.523352158440398;568.799999999999955
0.078983089701607;-13.439370267460504;-13.400837864723595;-125.537426824284765;3.524036423689127;-124.677213060989757;3.553446361781104;568.799999999999955
0.079687403002514;-13.527656201208480;-13.488515945916838;-125.163905722620754;3.553669604521337;-124.298035884433006;3.583528267973085;568.799999999999955
0.080391716303421;-13.615680305792363;-13.575928218708597;-124.793924852205564;3.583282502683394;-123.922411465890576;3.613592872506896;568.799999999999955
0.081096029604328;-13.703445074644110;-13.663077185353592;-124.427484213039179;3.612870131311384;-123.550339805362498;3.643635170873084;568.799999999999955
0.081800342905236;-13.790953001195678;-13.749965348106548;-124.064583805121629;3.642427503541395;-123.181820902848770;3.673650158562204;568.799999999999955
0.082504656206143;-13.878206578879022;-13.836595209222189;-123.705223628452885;3.671949632509508;-122.816854758349393;3.703632831064803;568.799999999999955
0.083208969507050;-13.965208301126102;-13.922969270955244;-123.349403683032961;3.701431531351814;-122.455441371864339;3.733578183871439;568.799999999999955
0.083913282807957;-14.051960661368874;-14.009090035560432;-122.997123968861843;3.730868213204401;-122.097580743393635;3.763481212472655;568.799999999999955
0.084617596108864;-14.138466153039291;-14.094960005292478;-122.648384485939559;3.760254691203349;-121.743272872937283;3.793336912359006;568.799999999999955
0.085321909409772;-14.224727205344578;-14.180581618204080;-122.302911671062603;3.789609255194879;-121.392244294005152;3.823163547502112;568.799999999999955
0.086026222710679;-14.310745990593025;-14.265957055539818;-121.960431961027510;3.818950708823085;-121.044221540107145;3.852979895489819;568.799999999999955
0.086730536011586;-14.396524616868177;-14.351088434342243;-121.620945355834309;3.848274835920858;-120.699204611243260;3.882781722237024;568.799999999999955
0.087434849312493;-14.482065192253586;-14.435977871653906;-121.284451855482956;3.877577420321098;-120.357193507413498;3.912564793658623;568.799999999999955
0.088139162613400;-14.567369824832804;-14.520627484517359;-120.950951459973496;3.906854245856703;-120.018188228617845;3.942324875669513;568.799999999999955
0.088843475914308;-14.652440622689383;-14.605039389975154;-120.620444169305898;3.936101096360570;-119.682188774856314;3.972057734184592;568.799999999999955
0.089547789215215;-14.737279693906876;-14.689215705069847;-120.292929983480164;3.965313755665601;-119.349195146128906;4.001759135118757;568.799999999999955
0.090252102516122;-14.821889146568830;-14.773158546843982;-119.968408902496293;3.994488007604691;-119.019207342435607;4.031424844386903;568.799999999999955
