Density;f;f0;u;P;T
0.000100000000000;-0.048288587399633;-0.048287711691683;568.799999999999955
0.007143133009072;-2.010482598305697;-2.008689881323571;568.799999999999955
0.014186266018144;-3.537746878699152;-3.531888806485652;568.799999999999955
0.021229399027216;-4.896720784951885;-4.885075703310996;568.799999999999955
0.028272532036288;-6.147393235512367;-6.128554114921159;568.799999999999955
0.035315665045360;-7.318337427581519;-7.291088381915715;568.799999999999955
0.042358798054432;-8.426411239677687;-8.389653448132872;568.799999999999955
0.049401931063504;-9.482765597081835;-9.435477796562807;568.799999999999955
0.056445064072576;-10.495327729488399;-10.436546904670829;568.799999999999955
0.063488197081648;-11.470021058811730;-11.398833566647768;568.799999999999955
0.070531330090720;-12.411437099345565;-12.326974593150924;568.799999999999955
0.077574463099792;-13.323236998694705;-13.224674268113747;568.799999999999955
0.084617596108864;-14.208406597200040;-14.094960005292478;568.799999999999955
0.091660729117936;-15.069426286177317;-14.940352278600798;568.799999999999955
0.098703862127008;-15.908388488052707;-15.762982011738099;568.799999999999955
0.105746995136080;-16.727081477786446;-16.564674292469103;568.799999999999955
0.112790128145153;-17.527050773814704;-17.347009687326498;568.799999999999955
0.119833261154225;-18.309645117516018;-18.111370183446500;568.799999999999955
0.126876394163297;-19.076051583155548;-18.858974293848533;568.799999999999955
0.133919527172369;-19.827322845295185;-19.590904344887516;568.799999999999955
0.140962660181441;-20.564398673332267;-20.308128008311392;568.799999999999955
0.148005793190513;-21.288123100574393;-21.011515519908770;568.799999999999955
0.155048926199585;-21.999258300648008;-21.701853613724630;568.799999999999955
0.162092059208657;-22.698495921614595;-22.379856919579840;568.799999999999955
0.169135192217729;-23.386466431929933;-23.046177376188584;568.799999999999955
0.176178325226801;-24.063746893546483;-23.701412073853341;568.799999999999955
0.183221458235873;-24.730867477616860;-24.346109841205443;568.799999999999955
0.190264591244945;-25.388316965361233;-24.980776817786808;568.799999999999955
0.197307724254017;-26.036547422717962;-25.605881200466591;568.799999999999955
0.204350857263089;-26.675978196956807;-26.221857311355230;568.799999999999955
0.211393990272161;-27.306999352774340;-26.829109104294666;568.799999999999955
0.218437123281233;-27.929974641885304;-27.428013203565030;568.799999999999955
0.225480256290305;-28.545244081933177;-28.018921550307955;568.799999999999955
0.232523389299377;-29.153126206324503;-28.602163717998771;568.799999999999955
0.239566522308449;-29.753920035389469;-29.178048947140102;568.799999999999955
0.246609655317521;-30.347906810371811;-29.746867940489345;568.799999999999955
0.253652788326593;-30.935351524627085;-30.308894453045678;568.799999999999955
0.260695921335665;-31.516504280665100;-30.864386705314811;568.799999999999955
0.267739054344737;-32.091601497017808;-31.413588643742393;568.799999999999955
0.274782187353809;-32.660866985105096;-31.956731068432919;568.799999999999955
0.281825320362881;-33.224512913153644;-32.494032645174663;568.799999999999955
0.288868453371953;-33.782740671640730;-33.025700816236899;568.799999999999955
0.295911586381025;-34.335741652599458;-33.551932622287779;568.799999999999955
0.302954719390097;-34.883697953336377;-34.072915446016694;568.799999999999955
0.309997852399169;-35.426783013616732;-34.588827686567384;568.799999999999955
0.317040985408241;-35.965162194119174;-35.099839372646009;568.799999999999955
0.324084118417313;-36.498993302898099;-35.606112721119608;568.799999999999955
0.331127251426385;-37.028427075691930;-36.107802647030937;568.799999999999955
0.338170384435458;-37.553607615154033;-36.605057230199108;568.799999999999955
0.345213517444530;-38.074672793424464;-37.098018142929178;568.799999999999955
0.352256650453602;-38.591754621907457;-37.586821042799649;568.799999999999955
0.359299783462674;-39.104979591636523;-38.071595934020628;568.799999999999955
0.366342916471746;-39.614468987196403;-38.552467500444415;568.799999999999955
0.373386049480818;-40.120339176816107;-39.029555412954458;568.799999999999955
0.380429182489890;-40.622701880937345;-39.502974613650188;568.799999999999955
0.387472315498962;-41.121664421296660;-39.972835578976394;568.799999999999955
0.394515448508034;-41.617329952326000;-40.439244563711519;568.799999999999955
0.401558581517106;-42.109797676475117;-40.902303827524008;568.799999999999955
0.408601714526178;-42.599163044882897;-41.362111845625954;568.799999999999955
0.415644847535250;-43.085517944668658;-41.818763504895095;568.799999999999955
0.422687980544322;-43.568950873981306;-42.272350286696692;568.799999999999955
0.429731113553394;-44.049547105824796;-42.722960437513713;568.799999999999955
0.436774246562466;-44.527388841573192;-43.170679128384748;568.799999999999955
0.443817379571538;-45.002555354998762;-43.615588604052220;568.799999999999955
0.450860512580610;-45.475123127552553;-44.057768322637635;568.799999999999955
0.457903645589682;-45.945165975569393;-44.497295086583975;568.799999999999955
0.464946778598754;-46.412755170000229;-44.934243165536948;568.799999999999955
0.471989911607826;-46.877959549224513;-45.368684411775945;568.799999999999955
0.479033044616898;-47.340845625440520;-45.800688368750556;568.799999999999955
0.486076177625970;-47.801477685088599;-46.230322373229711;568.799999999999955
0.493119310635042;-48.259917883724022;-46.657651651526287;568.799999999999955
0.500162443644114;-48.716226335717498;-47.082739410220348;568.799999999999955
0.507205576653186;-49.170461199132090;-47.505646921768488;568.799999999999955
0.514248709662258;-49.622678756096493;-47.926433605354340;568.799999999999955
0.521291842671330;-50.072933488965814;-48.345157103306327;568.799999999999955
0.528334975680402;-50.521278152542811;-48.761873353382029;568.799999999999955
0.535378108689474;-50.967763842607276;-49.176636657194848;568.799999999999955
0.542421241698546;-51.412440060984471;-49.589499745036676;568.799999999999955
0.549464374707618;-51.855354777366152;-50.000513837330679;568.799999999999955
0.556507507716691;-52.296554488080296;-50.409728702930153;568.799999999999955
0.563550640725763;-52.736084271994970;-50.817192714463104;568.799999999999955
0.570593773734835;-53.173987843725050;-51.222952900907160;568.799999999999955
0.577636906743907;-53.610307604300114;-51.627054997565835;568.799999999999955
0.584680039752979;-54.045084689442623;-52.029543493604578;568.799999999999955
0.591723172762051;-54.478359015591559;-52.430461677293550;568.799999999999955
0.598766305771123;-54.910169323802808;-52.829851679093764;568.799999999999955
0.605809438780195;-55.340553221642700;-53.227754512713318;568.799999999999955
0.612852571789267;-55.769547223189904;-53.624210114251802;568.799999999999955
0.619895704798339;-56.197186787248804;-54.019257379542758;568.799999999999955
0.626938837807411;-56.623506353872693;-54.412934199796574;568.799999999999955
0.633981970816483;-57.048539379289672;-54.805277495639238;568.799999999999955
0.641025103825555;-57.472318369316541;-55.196323249636201;568.799999999999955
0.648068236834627;-57.894874911341467;-55.586106537384396;568.799999999999955
0.655111369843699;-58.316239704953362;-55.974661557250442;568.799999999999955
0.662154502852771;-58.736442591286189;-56.362021658827615;568.799999999999955
0.669197635861843;-59.155512581148391;-56.748219370179918;568.799999999999955
0.676240768870915;-59.573477881998092;-57.133286423936958;568.799999999999955
0.683283901879987;-59.990365923825136;-57.517253782299534;568.799999999999955
0.690327034889059;-60.406203383994336;-57.900151661012089;568.799999999999955
0.697370167898131;-60.821016211103663;-58.282009552354744;568.799999999999955
0.704413300907203;-61.234829647906282;-58.662856247204360;568.799999999999955
0.711456433916275;-61.647668253342892;-59.042719856211313;568.799999999999955
0.718499566925347;-62.059555923728874;-59.421627830135606;568.799999999999955
0.725542699934419;-62.470515913137262;-59.799606979383633;568.799999999999955
0.732585832943491;-62.880570853016831;-60.176683492784370;568.799999999999955
0.739628965952563;-63.289742771081938;-60.552882955641508;568.799999999999955
0.746672098961635;-63.698053109509322;-60.928230367096113;568.799999999999955
0.753715231970707;-64.105522742474317;-61.302750156832232;568.799999999999955
0.760758364979779;-64.512171993057662;-61.676466201156181;568.799999999999955
0.767801497988851;-64.918020649552287;-62.049401838478580;568.799999999999955
0.774844630997923;-65.323087981198006;-62.421579884226389;568.799999999999955
0.781887764006996;-65.727392753369544;-62.793022645210996;568.799999999999955
0.788930897016068;-66.130953242243540;-63.163751933476789;568.799999999999955
0.795974030025140;-66.533787248967557;-63.533789079653396;568.799999999999955
0.803017163034212;-66.935912113353291;-63.903154945833577;568.799999999999955
0.810060296043284;-67.337344727114565;-64.271869937997593;568.799999999999955
0.817103429052356;-67.738101546671304;-64.639954018003735;568.799999999999955
0.824146562061428;-68.138198605536334;-65.007426715163646;568.799999999999955
0.831189695070500;-68.537651526304594;-65.374307137420445;568.799999999999955
0.838232828079572;-68.936475532260544;-65.740613982146073;568.799999999999955
0.845275961088644;-69.334685458620464;-66.106365546574224;568.799999999999955
0.852319094097716;-69.732295763424125;-66.471579737883872;568.799999999999955
0.859362227106788;-70.129320538091119;-66.836274082947810;568.799999999999955
0.866405360115860;-70.525773517654436;-67.200465737760069;568.799999999999955
0.873448493124932;-70.921668090685267;-67.564171496555090;568.799999999999955
0.880491626134004;-71.317017308920596;-67.927407800631244;568.799999999999955
0.887534759143076;-71.711833896605789;-68.290190746890417;568.799999999999955
0.894577892152148;-72.106130259562386;-68.652536096104910;568.799999999999955
0.901621025161220;-72.499918493993381;-69.014459280922566;568.799999999999955
0.908664158170292;-72.893210395033544;-69.375975413620083;568.799999999999955
0.915707291179364;-73.286017465056670;-69.737099293614506;568.799999999999955
0.922750424188436;-73.678350921747069;-70.097845414742054;568.799999999999955
0.929793557197508;-74.070221705944935;-70.458227972313239;568.799999999999955
0.936836690206580;-74.461640489273326;-70.818260869952695;568.799999999999955
0.943879823215652;-74.852617681554399;-71.177957726231853;568.799999999999955
0.950922956224724;-75.243163438022727;-71.537331881102119;568.799999999999955
0.957966089233796;-75.633287666342446;-71.896396402136162;568.799999999999955
0.965009222242868;-76.023000033435068;-72.255164090583932;568.799999999999955
0.972052355251940;-76.412309972124089;-72.613647487250731;568.799999999999955
0.979095488261012;-76.801226687602906;-72.971858878203207;568.799999999999955
0.986138621270084;-77.189759163731289;-73.329810300309987;568.799999999999955
0.993181754279156;-77.577916169166775;-73.687513546622426;568.799999999999955
1.000224887288228;-77.965706263334849;-74.044980171601452;568.799999999999955
1.007268020297301;-78.353137802244752;-74.402221496195665;568.799999999999955
1.014311153306373;-78.740218944153771;-74.759248612776176;568.799999999999955
1.021354286315445;-79.126957655086362;-75.116072389932839;568.799999999999955
1.028397419324517;-79.513361714210860;-75.472703477136903;568.799999999999955
1.035440552333589;-79.899438719079312;-75.829152309274647;568.799999999999955
1.042483685342661;-80.285196090733241;-76.185429111056067;568.799999999999955
1.049526818351733;-80.670641078680005;-76.541543901303385;568.799999999999955
1.056569951360805;-81.055780765742757;-76.897506497122848;568.799999999999955
1.063613084369877;-81.440622072787720;-77.253326517964098;568.799999999999955
1.070656217378949;-81.825171763332188;-77.609013389570634;568.799999999999955
1.077699350388021;-82.209436448036153;-77.964576347825073;568.799999999999955
1.084742483397093;-82.593422589080553;-78.320024442492468;568.799999999999955
1.091785616406165;-82.977136504435469;-78.675366540865241;568.799999999999955
1.098828749415237;-83.360584372020164;-79.030611331312670;568.799999999999955
1.105871882424309;-83.743772233758710;-79.385767326738105;568.799999999999955
1.112915015433381;-84.126705999532905;-79.740842867946853;568.799999999999955
1.119958148442453;-84.509391451034910;-80.095846126927498;568.799999999999955
1.127001281451525;-84.891834245522653;-80.450785110049424;568.799999999999955
1.134044414460597;-85.274039919479347;-80.805667661179143;568.799999999999955
1.141087547469669;-85.656013892179684;-81.160501464717953;568.799999999999955
1.148130680478741;-86.037761469164996;-81.515294048563362;568.799999999999955
1.155173813487813;-86.419287845628604;-81.870052786996496;568.799999999999955
1.162216946496885;-86.800598109714214;-82.224784903498019;568.799999999999955
1.169260079505957;-87.181697245728172;-82.579497473494399;568.799999999999955
1.176303212515029;-87.562590137268345;-82.934197427036878;568.799999999999955
1.183346345524101;-87.943281570270078;-83.288891551415020;568.799999999999955
1.190389478533173;-88.323776235972366;-83.643586493706735;568.799999999999955
1.197432611542245;-88.704078733804444;-83.998288763266942;568.799999999999955
1.204475744551317;-89.084193574194936;-84.353004734156201;568.799999999999955
1.211518877560389;-89.464125181305183;-84.707740647511571;568.799999999999955
1.218562010569461;-89.843877895687687;-85.062502613861014;568.799999999999955
1.225605143578534;-90.223455976871248;-85.417296615383037;568.799999999999955
1.232648276587606;-90.602863605874325;-85.772128508113369;568.799999999999955
1.239691409596678;-90.982104887647629;-86.127004024099890;568.799999999999955
1.246734542605750;-91.361183853447127;-86.481928773507391;568.799999999999955
1.253777675614822;-91.740104463138867;-86.836908246673687;568.799999999999955
1.260820808623894;-92.118870607437093;-87.191947816118244;568.799999999999955
1.267863941632966;-92.497486110075784;-87.547052738504831;568.799999999999955
1.274907074642038;-92.875954729915816;-87.902228156559346;568.799999999999955
1.281950207651110;-93.254280162988469;-88.257479100944110;568.799999999999955
1.288993340660182;-93.632466044475971;-88.612810492089849;568.799999999999955
1.296036473669254;-94.010515950630507;-88.968227141986318;568.799999999999955
1.303079606678326;-94.388433400632814;-89.323733755933105;568.799999999999955
1.310122739687398;-94.766221858390855;-89.679334934251159;568.799999999999955
1.317165872696470;-95.143884734280078;-90.035035173956558;568.799999999999955
1.324209005705542;-95.521425386825872;-90.390838870397218;568.799999999999955
1.331252138714614;-95.898847124329329;-90.746750318853728;568.799999999999955
1.338295271723686;-96.276153206437309;-91.102773716105034;568.799999999999955
1.345338404732758;-96.653346845657085;-91.458913161960169;568.799999999999955
1.352381537741830;-97.030431208817979;-91.815172660756659;568.799999999999955
1.359424670750902;-97.407409418478779;-92.171556122826658;568.799999999999955
1.366467803759974;-97.784284554283568;-92.528067365931506;568.799999999999955
1.373510936769046;-98.161059654266280;-92.884710116665644;568.799999999999955
1.380554069778118;-98.537737716104273;-93.241488011830526;568.799999999999955
1.387597202787190;-98.914321698322529;-93.598404599779428;568.799999999999955
1.394640335796262;-99.290814521449324;-93.955463341733818;568.799999999999955
1.401683468805334;-99.667219069123375;-94.312667613072037;568.799999999999955
1.408726601814406;-100.043538189154267;-94.670020704590854;568.799999999999955
1.415769734823478;-100.419774694536366;-95.027525823740845;568.799999999999955
1.422812867832550;-100.795931364417667;-95.385186095835920;568.799999999999955
1.429856000841622;-101.172010945023287;-95.743004565237868;568.799999999999955
1.436899133850694;-101.548016150535896;-96.100984196516421;568.799999999999955
1.443942266859766;-101.923949663932544;-96.459127875585466;568.799999999999955
1.450985399868839;-102.299814137779528;-96.817438410816024;568.799999999999955
1.458028532877911;-102.675612194986030;-97.175918534126410;568.799999999999955
1.465071665886983;-103.051346429516828;-97.534570902050334;568.799999999999955
1.472114798896055;-103.427019407065429;-97.893398096783301;568.799999999999955
1.479157931905127;-103.802633665688233;-98.252402627207843;568.799999999999955
1.486201064914199;-104.178191716400440;-98.611586929898237;568.799999999999955
1.493244197923271;-104.553696043734435;-98.970953370104922;568.799999999999955
1.500287330932343;-104.929149106262411;-99.330504242719414;568.799999999999955
1.507330463941415;-105.304553337081747;-99.690241773219824;568.799999999999955
1.514373596950487;-105.679911144266861;-100.050168118597767;568.799999999999955
1.521416729959559;-106.055224911286188;-100.410285368266827;568.799999999999955
1.528459862968631;-106.430496997385608;-100.770595544953082;568.799999999999955
1.535502995977703;-106.805729737940066;-101.131100605568264;568.799999999999955
1.542546128986775;-107.180925444772313;-101.491802442065591;568.799999999999955
1.549589261995847;-107.556086406441663;-101.852702882279090;568.799999999999955
1.556632395004919;-107.931214888502009;-102.213803690746360;568.799999999999955
1.563675528013991;-108.306313133730489;-102.575106569515540;568.799999999999955
1.570718661023063;-108.681383362327493;-102.936613158936467;568.799999999999955
1.577761794032135;-109.056427772089247;-103.298325038436701;568.799999999999955
1.584804927041207;-109.431448538552700;-103.660243727282463;568.799999999999955
1.591848060050279;-109.806447815114526;-104.022370685325086;568.799999999999955
1.598891193059351;-110.181427733124670;-104.384707313733031;568.799999999999955
1.605934326068423;-110.556390401954970;-104.747254955710005;568.799999999999955
1.612977459077495;-110.931337909044318;-105.110014897199363;568.799999999999955
1.620020592086567;-111.306272319919796;-105.472988367575041;568.799999999999955
1.627063725095639;-111.681195678196418;-105.836176540319514;568.799999999999955
1.634106858104711;-112.056110005554674;-106.199580533688788;568.799999999999955
1.641149991113783;-112.431017301697134;-106.563201411364929;568.799999999999955
1.648193124122855;-112.805919544285597;-106.927040183096196;568.799999999999955
1.655236257131927;-113.180818688858040;-107.291097805325251;568.799999999999955
1.662279390140999;-113.555716668727811;-107.655375181805468;568.799999999999955
1.669322523150072;-113.930615394864344;-108.019873164205777;568.799999999999955
1.676365656159144;-114.305516755757014;-108.384592552704206;568.799999999999955
1.683408789168216;-114.680422617262915;-108.749534096570216;568.799999999999955
1.690451922177288;-115.055334822438371;-109.114698494736402;568.799999999999955
1.697495055186360;-115.430255191356322;-109.480086396359397;568.799999999999955
1.704538188195432;-115.805185520908406;-109.845698401370413;568.799999999999955
1.711581321204504;-116.180127584595064;-110.211535061015624;568.799999999999955
1.718624454213576;-116.555083132301349;-110.577596878386458;568.799999999999955
1.725667587222648;-116.930053890061802;-110.943884308940241;568.799999999999955
1.732710720231720;-117.305041559813097;-111.310397761011018;568.799999999999955
1.739753853240792;-117.680047819136615;-111.677137596311212;568.799999999999955
1.746796986249864;-118.055074320990533;-112.044104130423790;568.799999999999955
1.753840119258936;-118.430122693432546;-112.411297633285614;568.799999999999955
1.760883252268008;-118.805194539334379;-112.778718329661800;568.799999999999955
1.767926385277080;-119.180291436087498;-113.146366399611324;568.799999999999955
1.774969518286152;-119.555414935301729;-113.514241978944227;568.799999999999955
1.782012651295224;-119.930566562497004;-113.882345159670351;568.799999999999955
1.789055784304296;-120.305747816788979;-114.250675990439902;568.799999999999955
