Density;f;f0;u;P;T
0.000100000000000;-0.046691930499099;-0.046691737091150;550.000000000000000
0.006865876914747;-1.880541375835207;-1.879438797301956;550.000000000000000
0.013631753829494;-3.310265874393418;-3.306908341097046;550.000000000000000
0.020397630744241;-4.583536067220609;-4.576699187213558;550.000000000000000
0.027163507658988;-5.756189418278053;-5.744796080239726;550.000000000000000
0.033929384573735;-6.854852793650424;-6.837908003498526;550.000000000000000
0.040695261488482;-7.895228343798678;-7.871798193016005;550.000000000000000
0.047461138403229;-8.887699348176254;-8.856894059529102;550.000000000000000
0.054227015317976;-9.839647092954420;-9.800611548558553;550.000000000000000
0.060992892232723;-10.756588588237987;-10.708497536293727;550.000000000000000
0.067758769147470;-11.642802723120093;-11.584858202531651;550.000000000000000
0.074524646062217;-12.501704000824770;-12.433133689563039;550.000000000000000
0.081290522976964;-13.336079602173582;-13.256135517870497;550.000000000000000
0.088056399891711;-14.148247064062668;-14.056204396013854;550.000000000000000
0.094822276806458;-14.940163238664375;-14.835319239536453;550.000000000000000
0.101588153721205;-15.713501996035115;-15.595174917128588;550.000000000000000
0.108354030635952;-16.469711124165567;-16.337239194926340;550.000000000000000
0.115119907550699;-17.210054948951733;-17.062795404216445;550.000000000000000
0.121885784465446;-17.935646888034182;-17.772975045218647;550.000000000000000
0.128651661380193;-18.647474743705558;-18.468783130351071;550.000000000000000
0.135417538294940;-19.346420651555619;-19.151118182327323;550.000000000000000
0.142183415209687;-20.033277024771166;-19.820788226250883;550.000000000000000
0.148949292124435;-20.708759450043718;-20.478523731325154;550.000000000000000
0.155715169039182;-21.373517229603802;-21.124988196613021;550.000000000000000
0.162481045953929;-22.028142082270829;-21.760786893774775;550.000000000000000
0.169246922868676;-22.673175387907495;-22.386474151260277;550.000000000000000
0.176012799783423;-23.309114267242901;-23.002559472014006;550.000000000000000
0.182778676698170;-23.936416721547740;-23.609512709259224;550.000000000000000
0.189544553612917;-24.555506006694312;-24.207768474960719;550.000000000000000
0.196310430527664;-25.166774378691215;-24.797729918108303;550.000000000000000
0.203076307442411;-25.770586319389629;-25.379771981559355;550.000000000000000
0.209842184357158;-26.367281329296183;-25.954244224410228;550.000000000000000
0.216608061271905;-26.957176357581748;-26.521473280018682;550.000000000000000
0.223373938186652;-27.540567926217694;-27.081765006641177;550.000000000000000
0.230139815101399;-28.117733994804116;-27.635406377284102;550.000000000000000
0.236905692016146;-28.688935604422095;-28.182667147139057;550.000000000000000
0.243671568930893;-29.254418332257746;-28.723801330390579;550.000000000000000
0.250437445845640;-29.814413583440814;-29.259048512883460;550.000000000000000
0.257203322760387;-30.369139742239774;-29.788635022839404;550.000000000000000
0.263969199675134;-30.918803201248508;-30.312774978307374;550.000000000000000
0.270735076589881;-31.463599284321031;-30.831671227156118;550.000000000000000
0.277500953504628;-32.003713076637823;-31.345516193045189;550.000000000000000
0.284266830419375;-32.539320173319297;-31.854492638843617;550.000000000000000
0.291032707334122;-33.070587356362957;-32.358774357326361;550.000000000000000
0.297798584248869;-33.597673208308770;-32.858526797606693;550.000000000000000
0.304564461163616;-34.120728669884755;-33.353907634608632;550.000000000000000
0.311330338078363;-34.639897547910849;-33.845067287909799;550.000000000000000
0.318096214993110;-35.155316978915593;-34.332149395458657;550.000000000000000
0.324862091907857;-35.667117853217853;-34.815291246967746;550.000000000000000
0.331627968822604;-36.175425203627775;-35.294624181183856;550.000000000000000
0.338393845737351;-36.680358562408301;-35.770273950721702;550.000000000000000
0.345159722652098;-37.182032289697837;-36.242361057705224;550.000000000000000
0.351925599566845;-37.680555876214797;-36.711001063078768;550.000000000000000
0.358691476481592;-38.176034222736803;-37.176304872120248;550.000000000000000
0.365457353396339;-38.668567898561811;-37.638378998401564;550.000000000000000
0.372223230311086;-39.158253380911361;-38.097325808192060;550.000000000000000
0.378989107225833;-39.645183277019946;-38.553243747083165;550.000000000000000
0.385754984140580;-40.129446530466382;-39.006227550421634;550.000000000000000
0.392520861055327;-40.611128613136131;-39.456368438971829;550.000000000000000
0.399286737970074;-41.090311704060802;-39.903754301080518;550.000000000000000
0.406052614884821;-41.567074856250372;-40.348469862487995;550.000000000000000
0.412818491799568;-42.041494152522873;-40.790596844815234;550.000000000000000
0.419584368714315;-42.513642851235680;-41.230214113655087;550.000000000000000
0.426350245629062;-42.983591522734365;-41.667397817106178;550.000000000000000
0.433116122543809;-43.451408177256013;-42.102221515507836;550.000000000000000
0.439881999458556;-43.917158384955201;-42.534756303063638;550.000000000000000
0.446647876373303;-44.380905388657389;-42.965070921977514;550.000000000000000
0.453413753288051;-44.842710209889695;-43.393231869669577;550.000000000000000
0.460179630202798;-45.302631748689365;-43.819303499588273;550.000000000000000
0.466945507117545;-45.760726877644771;-44.243348116089592;550.000000000000000
0.473711384032292;-46.217050530585297;-44.665426063813285;550.000000000000000
0.480477260947039;-46.671655786299063;-45.085595811949318;550.000000000000000
0.487243137861786;-47.124593947626522;-45.503914033754121;550.000000000000000
0.494009014776533;-47.575914616247211;-45.920435681646865;550.000000000000000
0.500774891691280;-48.025665763452324;-46.335214058188164;550.000000000000000
0.507540768606027;-48.473893797170632;-46.748300883219684;550.000000000000000
0.514306645520774;-48.920643625494378;-47.159746357420467;550.000000000000000
0.521072522435521;-49.365958716932056;-47.569599222515720;550.000000000000000
0.527838399350268;-49.809881157597069;-47.977906818355500;550.000000000000000
0.534604276265015;-50.252451705525878;-48.384715137063885;550.000000000000000
0.541370153179762;-50.693709842303157;-48.790068874444088;550.000000000000000
0.548136030094509;-51.133693822159643;-49.194011478811007;550.000000000000000
0.554901907009256;-51.572440718695070;-49.596585197409937;550.000000000000000
0.561667783924003;-52.009986469367924;-49.997831120568797;550.000000000000000
0.568433660838750;-52.446365917883348;-50.397789223720238;550.000000000000000
0.575199537753497;-52.881612854601279;-50.796498407420508;550.000000000000000
0.581965414668244;-53.315760055078478;-51.193996535482903;550.000000000000000
0.588731291582991;-53.748839316849754;-51.590320471335410;550.000000000000000
0.595497168497738;-54.180881494547165;-51.985506112704627;550.000000000000000
0.602263045412485;-54.611916533448877;-52.379588424721000;550.000000000000000
0.609028922327232;-55.041973501543069;-52.772601471534131;550.000000000000000
0.615794799241979;-55.471080620187657;-53.164578446520899;550.000000000000000
0.622560676156726;-55.899265293439946;-53.555551701163715;550.000000000000000
0.629326553071473;-56.326554136126674;-53.945552772671171;550.000000000000000
0.636092429986220;-56.752973000720374;-54.334612410408766;550.000000000000000
0.642858306900967;-57.178547003082926;-54.722760601202879;550.000000000000000
0.649624183815714;-57.603300547134843;-55.110026593577423;550.000000000000000
0.656390060730461;-58.027257348504051;-55.496438920978669;550.000000000000000
0.663155937645208;-58.450440457205488;-55.882025424040471;550.000000000000000
0.669921814559955;-58.872872279399324;-56.266813271938801;550.000000000000000
0.676687691474702;-59.294574598273094;-56.650828982881592;550.000000000000000
0.683453568389449;-59.715568594090513;-57.034098443777168;550.000000000000000
0.690219445304196;-60.135874863446638;-57.416646929121868;550.000000000000000
0.696985322218943;-60.555513437767878;-57.798499119145177;550.000000000000000
0.703751199133690;-60.974503801092254;-58.179679117248398;550.000000000000000
0.710517076048437;-61.392864907163762;-58.560210466770819;550.000000000000000
0.717282952963184;-61.810615195873005;-58.940116167115399;550.000000000000000
0.724048829877931;-62.227772609074066;-59.319418689264232;550.000000000000000
0.730814706792678;-62.644354605806697;-59.698139990712214;550.000000000000000
0.737580583707426;-63.060378176950408;-60.076301529845914;550.000000000000000
0.744346460622172;-63.475859859336722;-60.453924279793128;550.000000000000000
0.751112337536920;-63.890815749343702;-60.831028741767057;550.000000000000000
0.757878214451667;-64.305261515995895;-61.207634957927993;550.000000000000000
0.764644091366414;-64.719212413591862;-61.583762523784003;550.000000000000000
0.771409968281161;-65.132683293880135;-61.959430600151023;550.000000000000000
0.778175845195908;-65.545688617803151;-62.334657924691633;550.000000000000000
0.784941722110655;-65.958242466828722;-62.709462823050927;550.000000000000000
0.791707599025402;-66.370358553886135;-63.083863219606755;550.000000000000000
0.798473475940149;-66.782050233924735;-63.457876647850874;550.000000000000000
0.805239352854896;-67.193330514110798;-63.831520260416632;550.000000000000000
0.812005229769643;-67.604212063678318;-64.204810838767997;550.000000000000000
0.818771106684390;-68.014707223448497;-64.577764802564133;550.000000000000000
0.825536983599137;-68.424828015032077;-64.950398218712763;550.000000000000000
0.832302860513884;-68.834586149727542;-65.322726810125388;550.000000000000000
0.839068737428631;-69.243993037128661;-65.694765964186004;550.000000000000000
0.845834614343378;-69.653059793452698;-66.066530740945367;550.000000000000000
0.852600491258125;-70.061797249601625;-66.438035881051448;550.000000000000000
0.859366368172872;-70.470215958967117;-66.809295813426687;550.000000000000000
0.866132245087619;-70.878326204989833;-67.180324662701963;550.000000000000000
0.872898122002366;-71.286138008483462;-67.551136256416825;550.000000000000000
0.879663998917113;-71.693661134732423;-67.921744131995013;550.000000000000000
0.886429875831860;-72.100905100373481;-68.292161543503909;550.000000000000000
0.893195752746607;-72.507879180068812;-68.662401468206170;550.000000000000000
0.899961629661354;-72.914592412980113;-69.032476612911438;550.000000000000000
0.906727506576101;-73.321053609050836;-69.402399420135609;550.000000000000000
0.913493383490848;-73.727271355104605;-69.772182074074877;550.000000000000000
0.920259260405595;-74.133254020766927;-70.141836506401319;550.000000000000000
0.927025137320342;-74.539009764217539;-70.511374401886741;550.000000000000000
0.933791014235089;-74.944546537779232;-70.880807203860911;550.000000000000000
0.940556891149836;-75.349872093350285;-71.250146119510191;550.000000000000000
0.947322768064583;-75.754993987686234;-71.619402125022503;550.000000000000000
0.954088644979330;-76.159919587536564;-71.988585970583728;550.000000000000000
0.960854521894077;-76.564656074642087;-72.357708185231232;550.000000000000000
0.967620398808824;-76.969210450598169;-72.726779081569248;550.000000000000000
0.974386275723571;-77.373589541588487;-73.095808760351090;550.000000000000000
0.981152152638318;-77.777800002995050;-73.464807114932782;550.000000000000000
0.987918029553065;-78.181848323887408;-73.833783835602489;550.000000000000000
0.994683906467812;-78.585740831397132;-74.202748413790090;550.000000000000000
1.001449783382559;-78.989483694980379;-74.571710146160925;550.000000000000000
1.008215660297306;-79.393082930573215;-74.940678138597590;550.000000000000000
1.014981537212053;-79.796544404642844;-75.309661310073594;550.000000000000000
1.021747414126800;-80.199873838139155;-75.678668396422452;550.000000000000000
1.028513291041548;-80.603076810348739;-76.047707954005716;550.000000000000000
1.035279167956294;-81.006158762656099;-76.416788363283175;550.000000000000000
1.042045044871041;-81.409125002213571;-76.785917832288519;550.000000000000000
1.048810921785789;-81.811980705524078;-77.155104400013471;550.000000000000000
1.055576798700536;-82.214730921938894;-77.524355939703383;550.000000000000000
1.062342675615283;-82.617380577073035;-77.893680162067056;550.000000000000000
1.069108552530030;-83.019934476141245;-78.263084618403681;550.000000000000000
1.075874429444777;-83.422397307216102;-78.632576703649249;550.000000000000000
1.082640306359524;-83.824773644411579;-79.002163659345229;550.000000000000000
1.089406183274271;-84.227067950993032;-79.371852576531836;550.000000000000000
1.096172060189018;-84.629284582416730;-79.741650398568169;550.000000000000000
1.102937937103765;-85.031427789300011;-80.111563923881505;550.000000000000000
1.109703814018512;-85.433501720324386;-80.481599808648085;550.000000000000000
1.116469690933259;-85.835510425072897;-80.851764569407194;550.000000000000000
1.123235567848006;-86.237457856804042;-81.222064585610724;550.000000000000000
1.130001444762753;-86.639347875162898;-81.592506102110235;550.000000000000000
1.136767321677500;-87.041184248831655;-81.963095231583139;550.000000000000000
1.143533198592247;-87.442970658120757;-82.333837956900084;550.000000000000000
1.150299075506994;-87.844710697501498;-82.704740133435052;550.000000000000000
1.157064952421741;-88.246407878082209;-83.075807491320077;550.000000000000000
1.163830829336488;-88.648065630028455;-83.447045637645928;550.000000000000000
1.170596706251235;-89.049687304928426;-83.818460058610611;550.000000000000000
1.177362583165982;-89.451276178105303;-84.190056121616962;550.000000000000000
1.184128460080729;-89.852835450876412;-84.561839077320954;550.000000000000000
1.190894336995476;-90.254368252761381;-84.933814061632020;550.000000000000000
1.197660213910223;-90.655877643639130;-85.305986097666818;550.000000000000000
1.204426090824970;-91.057366615855301;-85.678360097657674;550.000000000000000
1.211191967739717;-91.458838096280530;-86.050940864817122;550.000000000000000
1.217957844654464;-91.860294948320288;-86.423733095159548;550.000000000000000
1.224723721569211;-92.261739973877610;-86.796741379281329;550.000000000000000
1.231489598483958;-92.663175915268425;-87.169970204100480;550.000000000000000
1.238255475398705;-93.064605457091190;-87.543423954557028;550.000000000000000
1.245021352313452;-93.466031228050682;-87.917106915275028;550.000000000000000
1.251787229228199;-93.867455802736956;-88.291023272187445;550.000000000000000
1.258553106142946;-94.268881703359938;-88.665177114124717;550.000000000000000
1.265318983057693;-94.670311401440216;-89.039572434368210;550.000000000000000
1.272084859972440;-95.071747319456406;-89.414213132169181;550.000000000000000
1.278850736887187;-95.473191832450112;-89.789103014234456;550.000000000000000
1.285616613801934;-95.874647269588323;-90.164245796179571;550.000000000000000
1.292382490716681;-96.276115915684031;-90.539645103950221;550.000000000000000
1.299148367631428;-96.677600012675768;-90.915304475212849;550.000000000000000
1.305914244546175;-97.079101761066141;-91.291227360715240;550.000000000000000
1.312680121460922;-97.480623321319868;-91.667417125617817;550.000000000000000
1.319445998375669;-97.882166815222149;-92.043877050796411;550.000000000000000
1.326211875290416;-98.283734327196981;-92.420610334117228;550.000000000000000
1.332977752205164;-98.685327905586860;-92.797620091684834;550.000000000000000
1.339743629119911;-99.086949563893555;-93.174909359063577;550.000000000000000
1.346509506034657;-99.488601281980252;-93.552481092473428;550.000000000000000
1.353275382949405;-99.890285007236471;-93.930338169960578;550.000000000000000
1.360041259864152;-100.292002655704849;-94.308483392543749;550.000000000000000
1.366807136778899;-100.693756113171005;-94.686919485336460;550.000000000000000
1.373573013693646;-101.095547236216902;-95.065649098646134;550.000000000000000
1.380338890608393;-101.497377853237623;-95.444674809050412;550.000000000000000
1.387104767523140;-101.899249765422368;-95.823999120451433;550.000000000000000
1.393870644437887;-102.301164747699886;-96.203624465108390;550.000000000000000
1.400636521352634;-102.703124549648876;-96.583553204648965;550.000000000000000
1.407402398267381;-103.105130896373566;-96.963787631060342;550.000000000000000
1.414168275182128;-103.507185489345062;-97.344329967659917;550.000000000000000
1.420934152096875;-103.909290007208952;-97.725182370046525;550.000000000000000
1.427700029011622;-104.311446106559075;-98.106346927032462;550.000000000000000
1.434465905926369;-104.713655422678684;-98.487825661556769;550.000000000000000
1.441231782841116;-105.115919570248664;-98.869620531580310;550.000000000000000
1.447997659755863;-105.518240144023707;-99.251733430962958;550.000000000000000
1.454763536670610;-105.920618719476792;-99.634166190323327;550.000000000000000
1.461529413585357;-106.323056853412112;-100.016920577881550;550.000000000000000
1.468295290500104;-106.725556084547435;-100.399998300285361;550.000000000000000
1.475061167414851;-107.128117934065827;-100.783401003419868;550.000000000000000
1.481827044329598;-107.530743906137573;-101.167130273201565;550.000000000000000
1.488592921244345;-107.933435488412499;-101.551187636356701;550.000000000000000
1.495358798159092;-108.336194152483330;-101.935574561184453;550.000000000000000
1.502124675073839;-108.739021354320457;-102.320292458305346;550.000000000000000
1.508890551988586;-109.141918534678666;-102.705342681395095;550.000000000000000
1.515656428903333;-109.544887119476442;-103.090726527904238;550.000000000000000
1.522422305818080;-109.947928520147755;-103.476445239763947;550.000000000000000
1.529188182732827;-110.351044133967832;-103.862500004078157;550.000000000000000
1.535954059647574;-110.754235344352281;-104.248891953802556;550.000000000000000
1.542719936562321;-111.157503521131062;-104.635622168410450;550.000000000000000
1.549485813477068;-111.560850020797218;-105.022691674545982;550.000000000000000
1.556251690391815;-111.964276186730899;-105.410101446664910;550.000000000000000
1.563017567306562;-112.367783349399659;-105.797852407663171;550.000000000000000
1.569783444221309;-112.771372826535014;-106.185945429493543;550.000000000000000
1.576549321136056;-113.175045923286092;-106.574381333770717;550.000000000000000
1.583315198050803;-113.578803932350795;-106.963160892364769;550.000000000000000
1.590081074965550;-113.982648134085039;-107.352284827983709;550.000000000000000
1.596846951880297;-114.386579796590667;-107.741753814744825;550.000000000000000
1.603612828795044;-114.790600175782501;-108.131568478735517;550.000000000000000
1.610378705709791;-115.194710515434892;-108.521729398563465;550.000000000000000
1.617144582624539;-115.598912047208842;-108.912237105896651;550.000000000000000
1.623910459539285;-116.003205990659652;-109.303092085993228;550.000000000000000
1.630676336454032;-116.407593553225851;-109.694294778221547;550.000000000000000
1.637442213368780;-116.812075930200194;-110.085845576570506;550.000000000000000
1.644208090283527;-117.216654304682905;-110.477744830150471;550.000000000000000
1.650973967198273;-117.621329847517970;-110.869992843684827;550.000000000000000
1.657739844113021;-118.026103717212735;-111.262589877992482;550.000000000000000
1.664505721027768;-118.430977059841837;-111.655536150461515;550.000000000000000
1.671271597942515;-118.835951008935282;-112.048831835513937;550.000000000000000
1.678037474857262;-119.241026685352210;-112.442477065062050;550.000000000000000
1.684803351772009;-119.646205197139622;-112.836471928956215;550.000000000000000
1.691569228686756;-120.051487639377967;-113.230816475424604;550.000000000000000
1.698335105601503;-120.456875094012915;-113.625510711504631;550.000000000000000
1.705100982516250;-120.862368629674577;-114.020554603466664;550.000000000000000
1.711866859430997;-121.267969301484598;-114.415948077229856;550.000000000000000
1.718632736345744;-121.673678150851359;-114.811691018770361;550.000000000000000
