Density;f;f0;u;P;u_0;P_0;T
0.000100000000000;0.000000000000000;0.000000000000000;0.000000000000000;0.000000000000000;0.000000000000000;0.000000000000000;568.799999999999955
0.007143133009072;-2.010482598305697;-2.008689881323571;-248.439694467748353;0.235844815989353;-248.041146207181782;0.236898982242989;568.799999999999955
0.014186266018144;-3.537746878699152;-3.531888806485652;-198.889543998620780;0.716246899307349;-198.171223307402300;0.720579115505812;568.799999999999955
0.021229399027216;-4.896720784951885;-4.885075703310996;-185.386062623449874;0.961086087434197;-184.461310404158439;0.969072939657948;568.799999999999955
0.028272532036288;-6.147393235512366;-6.128554114921159;-171.136732481220463;1.308924483851389;-170.024825972001054;1.321521775663445;568.799999999999955
0.035315665045360;-7.318337427581518;-7.291088381915715;-161.546878487936027;1.613201977778071;-160.272798127684865;1.630947927355770;568.799999999999955
0.042358798054432;-8.426411239677687;-8.389653448132872;-153.416190200757313;1.927885820683450;-151.992017514562519;1.951454272347798;568.799999999999955
0.049401931063504;-9.482765597081835;-9.435477796562807;-146.719623420836655;2.234532875182364;-145.154950926798051;2.264542917350792;568.799999999999955
0.056445064072576;-10.495327729488398;-10.436546904670829;-140.953684056331070;2.539188001663121;-139.255906067259900;2.576238364219684;568.799999999999955
0.063488197081648;-11.470021058811730;-11.398833566647768;-135.930754318111155;2.840022539206375;-134.106541479948277;2.884651031230572;568.799999999999955
0.070531330090720;-12.411437099345564;-12.326974593150924;-131.483962138357413;3.137698364129305;-129.539561359255515;3.190377031114153;568.799999999999955
0.077574463099792;-13.323236998694705;-13.224674268113747;-127.504805064064215;3.432120203206239;-125.446225688146328;3.493250662460415;568.799999999999955
0.084617596108864;-14.208406597200041;-14.094960005292478;-123.910233285535199;3.723420523289461;-121.743272872937283;3.793336912359006;568.799999999999955
0.091660729117936;-15.069426286177316;-14.940352278600798;-120.638009126155012;4.011658410337683;-118.368249210151390;4.090632251584722;568.799999999999955
0.098703862127008;-15.908388488052706;-15.762982011738099;-117.639584596084447;4.296907149402241;-115.272374032257005;4.385153498205256;568.799999999999955
0.105746995136080;-16.727081477786445;-16.564674292469103;-114.876584581215170;4.579227846827147;-112.417026204706303;4.676911569187395;568.799999999999955
0.112790128145153;-17.527050773814704;-17.347009687326498;-112.318105520822996;4.858677259100316;-109.771048056643849;4.965919110389944;568.799999999999955
0.119833261154225;-18.309645117516020;-18.111370183446500;-109.938918847247209;5.135305944280747;-107.308954109183645;5.252188261494000;568.799999999999955
0.126876394163297;-19.076051583155547;-18.858974293848533;-107.718164242561755;5.409159318169563;-105.009628411634964;5.535731288552629;568.799999999999955
0.133919527172369;-19.827322845295186;-19.590904344887516;-105.638402831621207;5.680277886840269;-102.855380693372439;5.816560395297108;568.799999999999955
0.140962660181441;-20.564398673332267;-20.308128008311392;-103.684911714707482;5.948697697349283;-100.831242949524807;6.094687772745246;568.799999999999955
0.148005793190513;-21.288123100574392;-21.011515519908770;-101.845151290247870;6.214450701253492;-98.924438171182757;6.370125582457039;568.799999999999955
0.155048926199585;-21.999258300648009;-21.701853613724630;-100.108356513123752;6.477565119682971;-97.123972562436876;6.642885959680868;568.799999999999955
0.162092059208657;-22.698495921614594;-22.379856919579840;-98.465219156717282;6.738065788070614;-95.420318451087766;6.912981011497241;568.799999999999955
0.169135192217729;-23.386466431929932;-23.046177376188584;-96.907637776019982;6.995974489316758;-93.805164681408527;7.180422816782851;568.799999999999955
0.176178325226801;-24.063746893546483;-23.701412073853341;-95.428518790689310;7.251310274128549;-92.271217966227510;7.445223425926287;568.799999999999955
0.183221458235873;-24.730867477616862;-24.346109841205443;-94.021616651300363;7.504089769071388;-90.812043199637671;7.707394860788749;568.799999999999955
0.190264591244945;-25.388316965361234;-24.980776817786808;-92.681404240063600;7.754327471618033;-89.421933906597232;7.966949114715611;568.799999999999955
0.197307724254017;-26.036547422717963;-25.605881200466591;-91.402966911123542;8.002036031418971;-88.095806251726856;8.223898152615572;568.799999999999955
0.204350857263089;-26.675978196956809;-26.221857311355230;-90.181915196382164;8.247226516948928;-86.829111646128510;8.478253911076411;568.799999999999955
0.211393990272161;-27.306999352774341;-26.829109104294666;-89.014312383258940;8.489908666744604;-85.617764168609028;8.730028298511559;568.799999999999955
0.218437123281233;-27.929974641885305;-27.428013203565030;-87.896614041164355;8.730091124572532;-84.458079886385988;8.979233195326309;568.799999999999955
0.225480256290305;-28.545244081933177;-28.018921550307955;-86.825617222689132;8.967781657997310;-83.346725808284077;9.225880454098281;568.799999999999955
0.232523389299377;-29.153126206324501;-28.602163717998771;-85.798417554167131;9.202987360106391;-82.280676691824269;9.469981899769536;568.799999999999955
0.239566522308449;-29.753920035389470;-29.178048947140102;-84.812372803081587;9.435714834227525;-81.257178297355679;9.711549329845017;568.799999999999955
0.246609655317521;-30.347906810371811;-29.746867940489345;-83.865071795574039;9.665970361686135;-80.273715967862387;9.950594514598212;568.799999999999955
0.253652788326593;-30.935351524627084;-30.308894453045678;-82.954307778477570;9.893760052913851;-79.327987634253532;10.187129197279766;568.799999999999955
0.260695921335665;-31.516504280665099;-30.864386705314811;-82.078055494108327;10.119089982188676;-78.417880518597215;10.421165094329002;568.799999999999955
0.267739054344737;-32.091601497017805;-31.413588643742393;-81.234451371554044;10.341966306584386;-77.541450943582433;10.652713895588803;568.799999999999955
0.274782187353809;-32.660866985105095;-31.956731068432919;-80.421776346407512;10.562395369760402;-76.696906764105123;10.881787264520948;568.799999999999955
0.281825320362881;-33.224512913153646;-32.494032645174663;-79.638440907168388;10.780383791290525;-75.882592022663843;11.108396838421605;568.799999999999955
0.288868453371953;-33.782740671640731;-33.025700816236899;-78.882972035376497;10.995938542398477;-75.096973499091689;11.332554228639715;568.799999999999955
0.295911586381025;-34.335741652599459;-33.551932622287779;-78.154001763114806;11.209067008850706;-74.338628880746398;11.554271020795806;568.799999999999955
0.302954719390097;-34.883697953336373;-34.072915446016694;-77.450257116081673;11.419777042042956;-73.606236324403667;11.773558774995788;568.799999999999955
0.309997852399169;-35.426783013616735;-34.588827686567384;-76.770551248277073;11.628076999150469;-72.898565217848528;11.990429026053555;568.799999999999955
0.317040985408241;-35.965162194119173;-35.099839372646009;-76.113775604822450;11.833975773224495;-72.214467979459585;12.204893283706244;568.799999999999955
0.324084118417313;-36.498993302898100;-35.606112721119608;-75.478892973943232;12.037482814322953;-71.552872758883680;12.416963032830587;568.799999999999955
0.331127251426385;-37.028427075691930;-36.107802647030937;-74.864931311064083;12.238608142434135;-70.912776922522312;12.626649733663704;568.799999999999955
0.338170384435457;-37.553607615154036;-36.605057230199108;-74.270978234482115;12.437362353201724;-70.293241224730764;12.833964822017556;568.799999999999955
0.345213517444530;-38.074672793424462;-37.098018142929178;-73.696176106961573;12.633756617328761;-69.693384579877801;13.038919709495225;568.799999999999955
0.352256650453602;-38.591754621907455;-37.586821042799649;-73.139717630217206;12.827802674364911;-69.112379362437409;13.241525783708823;568.799999999999955
0.359299783462674;-39.104979591636521;-38.071595934020628;-72.600841888667247;13.019512821830578;-68.549447172389861;13.441794408494967;568.799999999999955
0.366342916471746;-39.614468987196403;-38.552467500444415;-72.078830788427197;13.208899900290529;-68.003855011722933;13.639736924128098;568.799999999999955
0.373386049480818;-40.120339176816110;-39.029555412954458;-71.573005844388689;13.395977275112344;-67.474911825036088;13.835364647537723;568.799999999999955
0.380429182489890;-40.622701880937342;-39.502974613650188;-71.082725274701758;13.580758815529130;-66.961965363437173;14.028688872521474;568.799999999999955
0.387472315498962;-41.121664421296657;-39.972835578976394;-70.607381367321736;13.763258871582259;-66.464399336127030;14.219720869959598;568.799999999999955
0.394515448508034;-41.617329952326003;-40.439244563711519;-70.146398087793955;13.943492249496888;-65.981630818579788;14.408471888028011;568.799999999999955
0.401558581517106;-42.109797676475118;-40.902303827524008;-69.699228901703663;14.121474185870930;-65.513107890068270;14.594953152411080;568.799999999999955
0.408601714526178;-42.599163044882900;-41.362111845625954;-69.265354788109406;14.297220321197397;-65.058307476602067;14.779175866515097;568.799999999999955
0.415644847535250;-43.085517944668659;-41.818763504895095;-68.844282423565687;14.470746673052016;-64.616733378223088;14.961151211677667;568.799999999999955
0.422687980544322;-43.568950873981308;-42.272350286696692;-68.435542518930902;14.642069609199329;-64.187914462045626;15.140890347382953;568.799999999999955
0.429731113553394;-44.049547105824793;-42.722960437513713;-68.038688292911971;14.811205820999465;-63.771403004635381;15.318404411469498;568.799999999999955
0.436774246562466;-44.527388841573192;-43.170679128384748;-67.653294068702294;14.978172297246800;-63.366773169134461;15.493704520341360;568.799999999999955
0.443817379571538;-45.002555354998762;-43.615588604052220;-67.278953981252982;15.142986298724971;-62.973619604201609;15.666801769180630;568.799999999999955
0.450860512580610;-45.475123127552550;-44.057768322637635;-66.915280784626489;15.305665333520405;-62.591556153279669;15.837707232151928;568.799999999999955
0.457903645589682;-45.945165975569395;-44.497295086583975;-66.561904749597034;15.466227133335742;-62.220214663886715;16.006431962617654;568.799999999999955
0.464946778598754;-46.412755170000231;-44.934243165536948;-66.218472643126717;15.624689630848739;-61.859243887816540;16.172986993341979;568.799999999999955
0.471989911607826;-46.877959549224514;-45.368684411775945;-65.884646782404502;15.781070938084568;-61.508308464012508;16.337383336699780;568.799999999999955
0.479033044616898;-47.340845625440522;-45.800688368750556;-65.560104156226160;15.935389326082547;-61.167087976773132;16.499631984887259;568.799999999999955
0.486076177625970;-47.801477685088599;-46.230322373229711;-65.244535608298975;16.087663205625130;-60.835276082708425;16.659743910126195;568.799999999999955
0.493119310635042;-48.259917883724022;-46.657651651526287;-64.937645076831828;16.237911109173666;-60.512579700491308;16.817730064871963;568.799999999999955
0.500162443644114;-48.716226335717501;-47.082739410220348;-64.639148885553951;16.386151674043113;-60.198718258071267;16.973601382019869;568.799999999999955
0.507205576653186;-49.170461199132092;-47.505646921768488;-64.348775082299554;16.532403626588156;-59.893422992524975;17.127368775111648;568.799999999999955
0.514248709662258;-49.622678756096491;-47.926433605354340;-64.066262820764521;16.676685767635220;-59.596436298191620;17.279043138540324;568.799999999999955
0.521291842671330;-50.072933488965816;-48.345157103306327;-63.791361782281982;16.819016958966564;-59.307511119144877;17.428635347756881;568.799999999999955
0.528334975680402;-50.521278152542813;-48.761873353382029;-63.523831634599475;16.959416110750730;-59.026410382440979;17.576156259473628;568.799999999999955
0.535378108689474;-50.967763842607276;-49.176636657194848;-63.263441524456454;17.097902170056621;-58.752906468894004;17.721616711868787;568.799999999999955
0.542421241698546;-51.412440060984473;-49.589499745036676;-63.009969601790949;17.234494110193360;-58.486780718435945;17.865027524792048;568.799999999999955
0.549464374707618;-51.855354777366152;-50.000513837330679;-62.763202572897043;17.369210921001688;-58.227822967389010;18.006399499968374;568.799999999999955
0.556507507716691;-52.296554488080297;-50.409728702930153;-62.522935280686909;17.502071599893284;-57.975831115216614;18.145743421197196;568.799999999999955
0.563550640725763;-52.736084271994969;-50.817192714463104;-62.288970310114351;17.633095143582025;-57.730610718503009;18.283070054561158;568.799999999999955
0.570593773734835;-53.173987843725051;-51.222952900907160;-62.061117616645610;17.762300540641810;-57.491974610161591;18.418390148627765;568.799999999999955
0.577636906743907;-53.610307604300111;-51.627054997565835;-61.839194176705668;17.889706764532050;-57.259742542008730;18.551714434647437;568.799999999999955
0.584680039752979;-54.045084689442625;-52.029543493604578;-61.623023658148362;18.015332767297693;-57.033740848983420;18.683053626759872;568.799999999999955
0.591723172762051;-54.478359015591558;-52.430461677293550;-61.412436109711230;18.139197473706503;-56.813802133481182;18.812418422194703;568.799999999999955
0.598766305771123;-54.910169323802805;-52.829851679093764;-61.207267668012008;18.261319775882974;-56.599764968363608;18.939819501472883;568.799999999999955
0.605809438780195;-55.340553221642701;-53.227754512713318;-61.007360280913957;18.381718528401073;-56.391473617337532;19.065267528605908;568.799999999999955
0.612852571789267;-55.769547223189903;-53.624210114251802;-60.812561446516767;18.500412543599289;-56.188777771486322;19.188773151300822;568.799999999999955
0.619895704798339;-56.197186787248803;-54.019257379542758;-60.622723966274627;18.617420587379847;-55.991532300868890;19.310347001156686;568.799999999999955
0.626938837807411;-56.623506353872692;-54.412934199796574;-60.437705711787260;18.732761375178477;-55.799597020140155;19.429999693868041;568.799999999999955
0.633981970816483;-57.048539379289672;-54.805277495639238;-60.257369404230708;18.846453568178653;-55.612836467275812;19.547741829420950;568.799999999999955
0.641025103825555;-57.472318369316540;-55.196323249636201;-60.081582405452856;18.958515769857492;-55.431119694510087;19.663583992296111;568.799999999999955
0.648068236834627;-57.894874911341468;-55.586106537384396;-59.910216520489207;19.068966522527290;-55.254320070700288;19.777536751669523;568.799999999999955
0.655111369843699;-58.316239704953361;-55.974661557250442;-59.743147810341931;19.177824304145673;-55.082315094384739;19.889610661605801;568.799999999999955
0.662154502852771;-58.736442591286192;-56.362021658827615;-59.580256414579203;19.285107525249877;-54.914986216816914;19.999816261264442;568.799999999999955
0.669197635861843;-59.155512581148393;-56.748219370179918;-59.421426383280384;19.390834525918613;-54.752218674382377;20.108164075092581;568.799999999999955
0.676240768870915;-59.573477881998095;-57.133286423936958;-59.266545517548771;19.495023572887831;-54.593901329773765;20.214664613027878;568.799999999999955
0.683283901879987;-59.990365923825138;-57.517253782299534;-59.115505218264438;19.597692856682670;-54.439926521405035;20.319328370694109;568.799999999999955
0.690327034889059;-60.406203383994338;-57.900151661012089;-58.968200342451333;19.698860488845909;-54.290189920544549;20.422165829598690;568.799999999999955
0.697370167898131;-60.821016211103661;-58.282009552354744;-58.824529066997265;19.798544499123288;-54.144590395689903;20.523187457336938;568.799999999999955
0.704413300907203;-61.234829647906281;-58.662856247204360;-58.684392759074598;19.896762832751769;-54.003029883780236;20.622403707780386;568.799999999999955
0.711456433916275;-61.647668253342893;-59.042719856211313;-58.547695853040238;19.993533347724188;-53.865413267794409;20.719825021279888;568.799999999999955
0.718499566925347;-62.059555923728873;-59.421627830135606;-58.414345733416262;20.088873812041783;-53.731648260383395;20.815461824865054;568.799999999999955
0.725542699934419;-62.470515913137262;-59.799606979383633;-58.284252623544937;20.182801900990711;-53.601645293190771;20.909324532434944;568.799999999999955
0.732585832943491;-62.880570853016827;-60.176683492784370;-58.157329479643707;20.275335194402977;-53.475317411503276;21.001423544960659;568.799999999999955
0.739628965952563;-63.289742771081940;-60.552882955641508;-58.033491889949268;20.366491173902290;-53.352580173951850;21.091769250680272;568.799999999999955
0.746672098961635;-63.698053109509324;-60.928230367096113;-57.912657978671703;20.456287220127223;-53.233351556963399;21.180372025295611;568.799999999999955
0.753715231970707;-64.105522742474321;-61.302750156832232;-57.794748314461330;20.544740609951447;-53.117551863697578;21.267242232169330;568.799999999999955
0.760758364979779;-64.512171993057663;-61.676466201156181;-57.679685823153505;20.631868513688040;-53.005103637221140;21.352390222520064;568.799999999999955
0.767801497988851;-64.918020649552290;-62.049401838478580;-57.567395704616821;20.717687992230523;-52.895931577678880;21.435826335620945;568.799999999999955
0.774844630997923;-65.323087981198000;-62.421579884226389;-57.457805353358246;20.802215994224618;-52.789962463248038;21.517560898996734;568.799999999999955
0.781887764006996;-65.727392753369543;-62.793022645210996;-57.350844282746330;20.885469353219634;-52.687125074678001;21.597604228614102;568.799999999999955
0.788930897016068;-66.130953242243535;-63.163751933476789;-57.246444052716214;20.967464784754007;-52.587350123198732;21.675966629083604;568.799999999999955
0.795974030025140;-66.533787248967556;-63.533789079653396;-57.144538200677111;21.048218883449060;-52.490570181639804;21.752658393856137;568.799999999999955
0.803017163034212;-66.935912113353297;-63.903154945833577;-57.045062175403004;21.127748120150969;-52.396719618587994;21.827689805416028;568.799999999999955
0.810060296043284;-67.337344727114569;-64.271869937997593;-56.947953273982193;21.206068838933469;-52.305734535421912;21.901071135472314;568.799999999999955
0.817103429052356;-67.738101546671302;-64.639954018003735;-56.853150581394054;21.283197254184294;-52.217552706050007;21.972812645168162;568.799999999999955
0.824146562061428;-68.138198605536331;-65.007426715163646;-56.760594912668900;21.359149447698897;-52.132113519264600;22.042924585265652;568.799999999999955
0.831189695070500;-68.537651526304600;-65.374307137420445;-56.670228757610396;21.433941365690949;-52.049357923540292;22.111417196337690;568.799999999999955
0.838232828079572;-68.936475532260545;-65.740613982146073;-56.581996227783627;21.507588815857815;-51.969228374136407;22.178300708980586;568.799999999999955
0.845275961088644;-69.334685458620470;-66.106365546574224;-56.495843005709347;21.580107464456368;-51.891668782452733;22.243585343992919;568.799999999999955
0.852319094097716;-69.732295763424119;-66.471579737883872;-56.411716296202556;21.651512833347404;-51.816624467454929;22.307281312581154;568.799999999999955
0.859362227106788;-70.129320538091122;-66.836274082947810;-56.329564779665169;21.721820297081983;-51.744042109117466;22.369398816549207;568.799999999999955
0.866405360115860;-70.525773517654443;-67.200465737760069;-56.249338567252948;21.791045080014726;-51.673869703756004;22.429948048497323;568.799999999999955
0.873448493124932;-70.921668090685273;-67.564171496555090;-56.170989157894240;21.859202253385661;-51.606056521166984;22.488939192021725;568.799999999999955
0.880491626134004;-71.317017308920597;-67.927407800631244;-56.094469396972677;21.926306732456005;-51.540553063509378;22.546382421895949;568.799999999999955
0.887534759143076;-71.711833896605782;-68.290190746890417;-56.019733436571094;21.992373273719338;-51.477311025785625;22.602287904286563;568.799999999999955
0.894577892152148;-72.106130259562391;-68.652536096104910;-55.946736697365012;22.057416472042377;-51.416283257921528;22.656665796935691;568.799999999999955
