Density;f;f0;u;P;T
0.000100000000000;-0.038202692596758;-0.038202466351360;450.000000000000000
0.006865876914747;-1.539653583877488;-1.538363458728395;450.000000000000000
0.013631753829494;-2.712108445231387;-2.708177046661127;450.000000000000000
0.020397630744241;-3.758229643772065;-3.750222221608336;450.000000000000000
0.027163507658988;-4.723652610227905;-4.710302828395626;450.000000000000000
0.033929384573735;-5.630134121261698;-5.610269821192683;450.000000000000000
0.040695261488482;-6.490499249442868;-6.463018547650812;450.000000000000000
0.047461138403229;-7.313226940518270;-7.277078685072872;450.000000000000000
0.054227015317976;-8.104343166550960;-8.058515989545656;450.000000000000000
0.060992892232723;-8.868350296335398;-8.811866983463915;450.000000000000000
0.067758769147470;-9.608738715905853;-9.540653078826091;450.000000000000000
0.074524646062217;-10.328292311481299;-10.247687116304956;450.000000000000000
0.081290522976964;-11.029282288905675;-10.935267614437379;450.000000000000000
0.088056399891711;-11.713596101348060;-11.605307886785480;450.000000000000000
0.094822276806458;-12.382826538403092;-12.259425239205916;450.000000000000000
0.101588153721205;-13.038335252098904;-12.899004580329631;450.000000000000000
0.108354030635952;-13.681299269428868;-13.525245012334317;450.000000000000000
0.115119907550699;-14.312745826670525;-14.139194740867316;450.000000000000000
0.121885784465446;-14.933578972461385;-14.741777750850217;450.000000000000000
0.128651661380193;-15.544600234066431;-15.333814541860507;450.000000000000000
0.135417538294940;-16.146524914339533;-15.916038490193857;450.000000000000000
0.142183415209687;-16.739995115076532;-16.489108933287870;450.000000000000000
0.148949292124435;-17.325590268409524;-17.053621758376920;450.000000000000000
0.155715169039182;-17.903835744097414;-17.610118063551216;450.000000000000000
0.162481045953929;-18.475209952056026;-18.159091310889142;450.000000000000000
0.169246922868676;-19.040150254411294;-18.700993286234066;450.000000000000000
0.176012799783423;-19.599057925799698;-19.236239104572672;450.000000000000000
0.182778676698170;-20.152302345472258;-19.765211444750822;450.000000000000000
0.189544553612917;-20.700224563920905;-20.288264156381082;450.000000000000000
0.196310430527664;-21.243140356132155;-20.805725351149100;450.000000000000000
0.203076307442411;-21.781342850355678;-21.317900067486573;450.000000000000000
0.209842184357158;-22.315104803477286;-21.825072579767877;450.000000000000000
0.216608061271905;-22.844680580308562;-22.327508409403112;450.000000000000000
0.223373938186652;-23.370307883340363;-22.825456084434244;450.000000000000000
0.230139815101399;-23.892209271026687;-23.319148685760918;450.000000000000000
0.236905692016146;-24.410593495929721;-23.808805211389707;450.000000000000000
0.243671568930893;-24.925656688669296;-24.294631784715353;450.000000000000000
0.250437445845640;-25.437583409279270;-24.776822728505454;450.000000000000000
0.257203322760387;-25.946547584055374;-25.255561522743751;450.000000000000000
0.263969199675134;-26.452713343109238;-25.731021661619202;450.000000000000000
0.270735076589881;-26.956235771489464;-26.203367422595168;450.000000000000000
0.277500953504628;-27.457261584789627;-26.672754558551905;450.000000000000000
0.284266830419375;-27.955929738554023;-27.139330922386343;450.000000000000000
0.291032707334122;-28.452371979452252;-27.603237032111942;450.000000000000000
0.297798584248869;-28.946713345072439;-28.064606583378872;450.000000000000000
0.304564461163616;-29.439072618240822;-28.523566915390766;450.000000000000000
0.311330338078363;-29.929562740980579;-28.980239435397230;450.000000000000000
0.318096214993110;-30.418291192549489;-29.434740006265553;450.000000000000000
0.324862091907857;-30.905360335423072;-29.887179301060080;450.000000000000000
0.331627968822604;-31.390867732601681;-30.337663128066403;450.000000000000000
0.338393845737351;-31.874906439201276;-30.786292729276738;450.000000000000000
0.345159722652098;-32.357565270928170;-31.233165054990593;450.000000000000000
0.351925599566845;-32.838929051728464;-31.678373016872797;450.000000000000000
0.358691476481592;-33.319078842634568;-32.122005721540390;450.000000000000000
0.365457353396339;-33.798092153599676;-32.564148686515580;450.000000000000000
0.372223230311086;-34.276043139908566;-33.004884040177600;450.000000000000000
0.378989107225833;-34.753002784577703;-33.444290707168307;450.000000000000000
0.385754984140580;-35.229039068003225;-33.882444580550356;450.000000000000000
0.392520861055327;-35.704217125981415;-34.319418681880123;450.000000000000000
0.399286737970074;-36.178599397107440;-34.755283310237253;450.000000000000000
0.406052614884821;-36.652245760454029;-35.190106181146810;450.000000000000000
0.412818491799568;-37.125213664340237;-35.623952556236262;450.000000000000000
0.419584368714315;-37.597558246919199;-36.056885364386964;450.000000000000000
0.426350245629062;-38.069332449241578;-36.488965315065890;450.000000000000000
0.433116122543809;-38.540587121387929;-36.920251004458414;450.000000000000000
0.439881999458556;-39.011371122206675;-37.350799014964522;450.000000000000000
0.446647876373303;-39.481731413143088;-37.780664008568955;450.000000000000000
0.453413753288051;-39.951713146600838;-38.209898814549476;450.000000000000000
0.460179630202798;-40.421359749236260;-38.638554511945685;450.000000000000000
0.466945507117545;-40.890713000550008;-39.066680507173800;450.000000000000000
0.473711384032292;-41.359813107108842;-39.494324607139006;450.000000000000000
0.480477260947039;-41.828698772700250;-39.921533088167074;450.000000000000000
0.487243137861786;-42.297407264697782;-40.348350761049687;450.000000000000000
0.494009014776533;-42.765974476890534;-40.774821032473255;450.000000000000000
0.500774891691280;-43.234434989009728;-41.200985963079091;450.000000000000000
0.507540768606027;-43.702822123165866;-41.626886322382397;450.000000000000000
0.514306645520774;-44.171167997392942;-42.052561640759620;450.000000000000000
0.521072522435521;-44.639503576480386;-42.478050258696982;450.000000000000000
0.527838399350268;-45.107858720259529;-42.903389373478007;450.000000000000000
0.534604276265015;-45.576262229498191;-43.328615083474297;450.000000000000000
0.541370153179762;-46.044741889545826;-43.753762430191195;450.000000000000000
0.548136030094509;-46.513324511860716;-44.178865438208675;450.000000000000000
0.554901907009256;-46.982035973540995;-44.603957153147384;450.000000000000000
0.561667783924003;-47.450901254973026;-45.029069677780278;450.000000000000000
0.568433660838750;-47.919944475702025;-45.454234206401509;450.000000000000000
0.575199537753497;-48.389188928622772;-45.879481057556383;450.000000000000000
0.581965414668244;-48.858657112581760;-46.304839705228744;450.000000000000000
0.588731291582991;-49.328370763475554;-46.730338808575446;450.000000000000000
0.595497168497738;-49.798350883924911;-47.156006240291525;450.000000000000000
0.602263045412485;-50.268617771598805;-47.581869113683766;450.000000000000000
0.609028922327232;-50.739191046257822;-48.007953808525244;450.000000000000000
0.615794799241979;-51.210089675582331;-48.434285995758657;450.000000000000000
0.622560676156726;-51.681331999846051;-48.860890661111576;450.000000000000000
0.629326553071473;-52.152935755493004;-49.287792127682856;450.000000000000000
0.636092429986220;-52.624918097671355;-49.715014077555466;450.000000000000000
0.642858306900967;-53.097295621775437;-50.142579572487548;450.000000000000000
0.649624183815714;-53.570084384043575;-50.570511073730238;450.000000000000000
0.656390060730461;-54.043299921257017;-50.998830461017647;450.000000000000000
0.663155937645208;-54.516957269582953;-51.427559050771833;450.000000000000000
0.669921814559955;-54.991070982601528;-51.856717613562672;450.000000000000000
0.676687691474702;-55.465655148555719;-52.286326390860317;450.000000000000000
0.683453568389449;-55.940723406859732;-52.716405111115634;450.000000000000000
0.690219445304196;-56.416288963900733;-53.146973005201893;450.000000000000000
0.696985322218943;-56.892364608166247;-53.578048821248935;450.000000000000000
0.703751199133690;-57.368962724728362;-54.009650838899447;450.000000000000000
0.710517076048437;-57.846095309114339;-54.441796883015044;450.000000000000000
0.717282952963184;-58.323773980591255;-54.874504336858365;450.000000000000000
0.724048829877931;-58.802009994891975;-55.307790154775901;450.000000000000000
0.730814706792678;-59.280814256407453;-55.741670874404953;450.000000000000000
0.737580583707426;-59.760197329869833;-56.176162628426638;450.000000000000000
0.744346460622172;-60.240169451549754;-56.611281155885884;450.000000000000000
0.751112337536920;-60.720740539989521;-57.047041813098019;450.000000000000000
0.757878214451667;-61.201920206293707;-57.483459584160599;450.000000000000000
0.764644091366414;-61.683717763997358;-57.920549091088112;450.000000000000000
0.771409968281161;-62.166142238530995;-58.358324603586283;450.000000000000000
0.778175845195908;-62.649202376301119;-58.796800048481657;450.000000000000000
0.784941722110655;-63.132906653403815;-59.235989018821613;450.000000000000000
0.791707599025402;-63.617263283988521;-59.675904782658911;450.000000000000000
0.798473475940149;-64.102280228288251;-60.116560291534320;450.000000000000000
0.805239352854896;-64.587965200331823;-60.557968188670017;450.000000000000000
0.812005229769643;-65.074325675352938;-61.000140816886066;450.000000000000000
0.818771106684390;-65.561368896910594;-61.443090226251357;450.000000000000000
0.825536983599137;-66.049101883734622;-61.886828181480134;450.000000000000000
0.832302860513884;-66.537531436309081;-62.331366169084376;450.000000000000000
0.839068737428631;-67.026664143206517;-62.776715404292105;450.000000000000000
0.845834614343378;-67.516506387185245;-63.222886837740973;450.000000000000000
0.852600491258125;-68.007064351060691;-63.669891161956144;450.000000000000000
0.859366368172872;-68.498344023362506;-64.117738817621046;450.000000000000000
0.866132245087619;-68.990351203787625;-64.566439999649077;450.000000000000000
0.872898122002366;-69.483091508459651;-65.016004663064209;450.000000000000000
0.879663998917113;-69.976570375004201;-65.466442528697641;450.000000000000000
0.886429875831860;-70.470793067449691;-65.917763088707844;450.000000000000000
0.893195752746607;-70.965764680962195;-66.369975611930599;450.000000000000000
0.899961629661354;-71.461490146422989;-66.823089149065396;450.000000000000000
0.906727506576101;-71.957974234857033;-67.277112537704525;450.000000000000000
0.913493383490848;-72.455221561720009;-67.732054407210654;450.000000000000000
0.920259260405595;-72.953236591051308;-68.187923183448447;450.000000000000000
0.927025137320342;-73.452023639499984;-68.644727093375636;450.000000000000000
0.933791014235089;-73.951586880230408;-69.102474169498720;450.000000000000000
0.940556891149836;-74.451930346714249;-69.561172254198084;450.000000000000000
0.947322768064583;-74.953057936414382;-70.020829003927417;450.000000000000000
0.954088644979330;-75.454973414366734;-70.481451893291677;450.000000000000000
0.960854521894077;-75.957680416665681;-70.943048219008148;450.000000000000000
0.967620398808824;-76.461182453857774;-71.405625103754531;450.000000000000000
0.974386275723571;-76.965482914249222;-71.869189499908117;450.000000000000000
0.981152152638318;-77.470585067131125;-72.333748193179787;450.000000000000000
0.987918029553065;-77.976492065927303;-72.799307806146487;450.000000000000000
0.994683906467812;-78.483206951268755;-73.265874801685570;450.000000000000000
1.001449783382559;-78.990732653998478;-73.733455486314568;450.000000000000000
1.008215660297306;-79.499071998110253;-74.202056013439233;450.000000000000000
1.014981537212053;-80.008227703625039;-74.671682386513297;450.000000000000000
1.021747414126800;-80.518202389407904;-75.142340462112614;450.000000000000000
1.028513291041548;-81.028998575928611;-75.614035952926685;450.000000000000000
1.035279167956294;-81.540618687968689;-76.086774430670246;450.000000000000000
1.042045044871041;-82.053065057277308;-76.560561328917402;450.000000000000000
1.048810921785789;-82.566339925178610;-77.035401945861068;450.000000000000000
1.055576798700536;-83.080445445132597;-77.511301446999894;450.000000000000000
1.062342675615283;-83.595383685251463;-77.988264867755149;450.000000000000000
1.069108552530030;-84.111156630773564;-78.466297116019675;450.000000000000000
1.075874429444777;-84.627766186496430;-78.945402974641240;450.000000000000000
1.082640306359524;-85.145214179170495;-79.425587103842076;450.000000000000000
1.089406183274271;-85.663502359854846;-79.906854043576885;450.000000000000000
1.096172060189018;-86.182632406236408;-80.389208215831019;450.000000000000000
1.102937937103765;-86.702605924913740;-80.872653926860835;450.000000000000000
1.109703814018512;-87.223424453646047;-81.357195369377820;450.000000000000000
1.116469690933259;-87.745089463568874;-81.842836624678370;450.000000000000000
1.123235567848006;-88.267602361376646;-82.329581664720749;450.000000000000000
1.130001444762753;-88.790964491473503;-82.817434354150905;450.000000000000000
1.136767321677500;-89.315177138091983;-83.306398452278628;450.000000000000000
1.143533198592247;-89.840241527380982;-83.796477615005514;450.000000000000000
1.150299075506994;-90.366158829462847;-84.287675396706177;450.000000000000000
1.157064952421741;-90.892930160459912;-84.779995252064083;450.000000000000000
1.163830829336488;-91.420556584491038;-85.273440537863422;450.000000000000000
1.170596706251235;-91.949039115637859;-85.768014514738013;450.000000000000000
1.177362583165982;-92.478378719881320;-86.263720348878934;450.000000000000000
1.184128460080729;-93.008576317007993;-86.760561113701542;450.000000000000000
1.190894336995476;-93.539632782486649;-87.258539791473524;450.000000000000000
1.197660213910223;-94.071548949314632;-87.757659274904697;450.000000000000000
1.204426090824970;-94.604325609834206;-88.257922368699951;450.000000000000000
1.211191967739717;-95.137963517518472;-88.759331791076107;450.000000000000000
1.217957844654464;-95.672463388726797;-89.261890175243835;450.000000000000000
1.224723721569211;-96.207825904429484;-89.765600070855669;450.000000000000000
1.231489598483958;-96.744051711901562;-90.270463945420829;450.000000000000000
1.238255475398705;-97.281141426384977;-90.776484185688034;450.000000000000000
1.245021352313452;-97.819095632719666;-91.283663098996868;450.000000000000000
1.251787229228199;-98.357914886942325;-91.792002914598910;450.000000000000000
1.258553106142946;-98.897599717853254;-92.301505784949157;450.000000000000000
1.265318983057693;-99.438150628550545;-92.812173786968614;450.000000000000000
1.272084859972440;-99.979568097931363;-93.324008923278910;450.000000000000000
1.278850736887187;-100.521852582160292;-93.837013123409591;450.000000000000000
1.285616613801934;-101.065004516103755;-94.351188244978843;450.000000000000000
1.292382490716681;-101.609024314731002;-94.866536074848298;450.000000000000000
1.299148367631428;-102.153912374480640;-95.383058330252680;450.000000000000000
1.305914244546175;-102.699669074592819;-95.900756659904928;450.000000000000000
1.312680121460922;-103.246294778406664;-96.419632645077286;450.000000000000000
1.319445998375669;-103.793789834622672;-96.939687800659243;450.000000000000000
1.326211875290416;-104.342154578529787;-97.460923576192684;450.000000000000000
1.332977752205164;-104.891389333196855;-97.983341356884878;450.000000000000000
1.339743629119911;-105.441494410628579;-98.506942464600016;450.000000000000000
1.346509506034657;-105.992470112885243;-99.031728158829623;450.000000000000000
1.353275382949405;-106.544316733166511;-99.557699637642457;450.000000000000000
1.360041259864152;-107.097034556858759;-100.084858038614541;450.000000000000000
1.366807136778899;-107.650623862546254;-100.613204439739604;450.000000000000000
1.373573013693646;-108.205084922985620;-101.142739860320475;450.000000000000000
1.380338890608393;-108.760418006043864;-101.673465261842054;450.000000000000000
1.387104767523140;-109.316623375599789;-102.205381548826068;450.000000000000000
1.393870644437887;-109.873701292408711;-102.738489569668232;450.000000000000000
1.400636521352634;-110.431652014930791;-103.272790117458186;450.000000000000000
1.407402398267381;-110.990475800122539;-103.808283930782551;450.000000000000000
1.414168275182128;-111.550172904192124;-104.344971694511671;450.000000000000000
1.420934152096875;-112.110743583318211;-104.882854040570237;450.000000000000000
1.427700029011622;-112.672188094332498;-105.421931548692299;450.000000000000000
1.434465905926369;-113.234506695366406;-105.962204747161039;450.000000000000000
1.441231782841116;-113.797699646461837;-106.503674113533577;450.000000000000000
1.447997659755863;-114.361767210146184;-107.046340075351182;450.000000000000000
1.454763536670610;-114.926709651972146;-107.590203010835339;450.000000000000000
1.461529413585357;-115.492527241022415;-108.135263249569846;450.000000000000000
1.468295290500104;-116.059220250379639;-108.681521073169279;450.000000000000000
1.475061167414851;-116.626788957561658;-109.228976715934294;450.000000000000000
1.481827044329598;-117.195233644923192;-109.777630365493920;450.000000000000000
1.488592921244345;-117.764554600023359;-110.327482163435050;450.000000000000000
1.495358798159092;-118.334752115960242;-110.878532205919697;450.000000000000000
1.502124675073839;-118.905826491672457;-111.430780544290101;450.000000000000000
1.508890551988586;-119.477778032208377;-111.984227185661837;450.000000000000000
1.515656428903333;-120.050607048963613;-112.538872093505589;450.000000000000000
1.522422305818080;-120.624313859886840;-113.094715188217350;450.000000000000000
1.529188182732827;-121.198898789655019;-113.651756347677690;450.000000000000000
1.535954059647574;-121.774362169818190;-114.209995407800150;450.000000000000000
1.542719936562321;-122.350704338914426;-114.769432163069013;450.000000000000000
1.549485813477068;-122.927925642555749;-115.330066367066692;450.000000000000000
1.556251690391815;-123.506026433485317;-115.891897732991012;450.000000000000000
1.563017567306562;-124.085007071606682;-116.454925934162489;450.000000000000000
1.569783444221309;-124.664867923985710;-117.019150604521997;450.000000000000000
1.576549321136056;-125.245609364825583;-117.584571339118753;450.000000000000000
1.583315198050803;-125.827231775415910;-118.151187694589154;450.000000000000000
1.590081074965550;-126.409735544056318;-118.718999189626430;450.000000000000000
1.596846951880297;-126.993121065955080;-119.288005305441288;450.000000000000000
1.603612828795044;-127.577388743103896;-119.858205486213933;450.000000000000000
1.610378705709791;-128.162538984129100;-120.429599139537487;450.000000000000000
1.617144582624539;-128.748572204119938;-121.002185636852985;450.000000000000000
1.623910459539285;-129.335488824435117;-121.575964313876156;450.000000000000000
1.630676336454032;-129.923289272487580;-122.150934471016271;450.000000000000000
1.637442213368780;-130.511973981508959;-122.727095373786923;450.000000000000000
1.644208090283527;-131.101543390293614;-123.304446253209221;450.000000000000000
1.650973967198273;-131.691997942923877;-123.882986306207400;450.000000000000000
1.657739844113021;-132.283338088476114;-124.462714695996908;450.000000000000000
1.664505721027768;-132.875564280709369;-125.043630552465373;450.000000000000000
1.671271597942515;-133.468676977736521;-125.625732972546317;450.000000000000000
1.678037474857262;-134.062676641679019;-126.209021020585936;450.000000000000000
1.684803351772009;-134.657563738305640;-126.793493728703098;450.000000000000000
1.691569228686756;-135.253338736656417;-127.379150097142428;450.000000000000000
1.698335105601503;-135.850002108651751;-127.965989094621051;450.000000000000000
1.705100982516250;-136.447554328687971;-128.554009658668718;450.000000000000000
1.711866859430997;-137.045995873219653;-129.143210695961557;450.000000000000000
