Density;f;f0;u;P;T
0.000000000028410;0.000000000000003;-0.000000000000005;0.223666029946361
0.001000000000000;0.000571439778521;0.000571931732369;0.223666029946361
0.002000000000000;0.001450625382801;0.001452172523567;0.223666029946361
0.003000000000000;0.002444591190815;0.002447691762523;0.223666029946361
0.004000000000000;0.003512330024641;0.003517461411862;0.223666029946361
0.005000000000000;0.004634407457538;0.004641997699252;0.223666029946361
0.006000000000000;0.005799388369514;0.005809826415854;0.223666029946361
0.007000000000000;0.006999721786842;0.007013366896307;0.223666029946361
0.008000000000000;0.008230043402888;0.008247232325852;0.223666029946361
0.009000000000000;0.009486343594035;0.009507395816270;0.223666029946361
0.010000000000000;0.010765511130959;0.010790732483778;0.223666029946361
0.011000000000000;0.012065061628658;0.012094746648318;0.223666029946361
0.012000000000000;0.013382965695156;0.013417399108954;0.223666029946361
0.013000000000000;0.014717534759994;0.014756992406552;0.223666029946361
0.014000000000000;0.016067342195461;0.016112091601312;0.223666029946361
0.015000000000000;0.017431167040085;0.017481467800011;0.223666029946361
0.016000000000000;0.018807952755272;0.018864056808195;0.223666029946361
0.017000000000000;0.020196776304107;0.020258928158403;0.223666029946361
0.018000000000000;0.021596824512100;0.021665261450011;0.223666029946361
0.019000000000000;0.023007375686158;0.023082327962302;0.223666029946361
0.020000000000000;0.024427785108042;0.024509476148563;0.223666029946361
0.021000000000000;0.025857473433837;0.025946120038153;0.223666029946361
0.022000000000000;0.027295917307545;0.027391729852361;0.223666029946361
0.023000000000000;0.028742641685451;0.028845824329732;0.223666029946361
0.024000000000000;0.030197213499122;0.030307964388446;0.223666029946361
0.025000000000000;0.031659236377855;0.031777747846648;0.223666029946361
0.026000000000000;0.033128346218392;0.033254804988766;0.223666029946361
0.027000000000000;0.034604207438660;0.034738794814850;0.223666029946361
0.028000000000000;0.036086509788620;0.036229401846262;0.223666029946361
0.029000000000000;0.037574965618498;0.037726333388226;0.223666029946361
0.030000000000000;0.039069307525366;0.039229317170362;0.223666029946361
0.031000000000000;0.040569286314832;0.040738099302136;0.223666029946361
0.032000000000000;0.042074669226900;0.042252442492374;0.223666029946361
0.033000000000000;0.043585238384600;0.043772124491528;0.223666029946361
0.034000000000000;0.045100789431549;0.045296936722926;0.223666029946361
0.035000000000000;0.046621130330582;0.046826683075172;0.223666029946361
0.036000000000000;0.048146080300374;0.048361178832661;0.223666029946361
0.037000000000000;0.049675468870833;0.049900249725016;0.223666029946361
0.038000000000000;0.051209135041179;0.051443731079354;0.223666029946361
0.039000000000000;0.052746926527130;0.052991467061841;0.223666029946361
0.040000000000000;0.054288699085764;0.054543309997098;0.223666029946361
0.041000000000000;0.055834315908298;0.056099119755692;0.223666029946361
0.042000000000000;0.057383647072473;0.057658763201425;0.223666029946361
0.043000000000000;0.058936569047432;0.059222113691293;0.223666029946361
0.044000000000000;0.060492964244955;0.060789050621983;0.223666029946361
0.045000000000000;0.062052720611769;0.062359459017620;0.223666029946361
0.046000000000000;0.063615731258343;0.063933229154175;0.223666029946361
0.047000000000000;0.065181894120185;0.065510256216551;0.223666029946361
0.048000000000000;0.066751111648176;0.067090439984870;0.223666029946361
0.049000000000000;0.068323290524881;0.068673684546911;0.223666029946361
0.050000000000000;0.069898341404198;0.070259898034034;0.223666029946361
0.051000000000000;0.071476178671978;0.071848992378246;0.223666029946361
0.052000000000000;0.073056720225553;0.073440883088319;0.223666029946361
0.053000000000000;0.074639887270344;0.075035489043145;0.223666029946361
0.054000000000000;0.076225604131939;0.076632732300695;0.223666029946361
0.055000000000000;0.077813798082166;0.078232537921129;0.223666029946361
0.056000000000000;0.079404399177923;0.079834833802782;0.223666029946361
0.057000000000000;0.080997340111583;0.081439550529870;0.223666029946361
0.058000000000000;0.082592556071971;0.083046621230889;0.223666029946361
0.059000000000000;0.084189984614977;0.084655981446776;0.223666029946361
0.060000000000000;0.085789565543018;0.086267569008034;0.223666029946361
0.061000000000000;0.087391240792536;0.087881323920011;0.223666029946361
0.062000000000000;0.088994954328977;0.089497188255772;0.223666029946361
0.063000000000000;0.090600652048503;0.091115106055804;0.223666029946361
0.064000000000000;0.092208281686034;0.092735023234158;0.223666029946361
0.065000000000000;0.093817792729048;0.094356887490452;0.223666029946361
0.066000000000000;0.095429136336661;0.095980648227231;0.223666029946361
0.067000000000000;0.097042265263698;0.097606256472432;0.223666029946361
0.068000000000000;0.098657133789241;0.099233664806393;0.223666029946361
0.069000000000000;0.100273697649462;0.100862827293245;0.223666029946361
0.070000000000000;0.101891913974281;0.102493699416199;0.223666029946361
0.071000000000000;0.103511741227670;0.104126238016550;0.223666029946361
0.072000000000000;0.105133139151409;0.105760401236237;0.223666029946361
0.073000000000000;0.106756068711789;0.107396148463371;0.223666029946361
0.074000000000000;0.108380492049421;0.109033440280975;0.223666029946361
0.075000000000000;0.110006372431638;0.110672238418373;0.223666029946361
0.076000000000000;0.111633674207461;0.112312505705182;0.223666029946361
0.077000000000000;0.113262362764953;0.113954206027784;0.223666029946361
0.078000000000000;0.114892404490718;0.115597304287959;0.223666029946361
0.079000000000000;0.116523766731611;0.117241766363830;0.223666029946361
0.080000000000000;0.118156417758144;0.118887559072492;0.223666029946361
0.081000000000000;0.119790326729944;0.120534650134800;0.223666029946361
0.082000000000000;0.121425463662844;0.122183008141813;0.223666029946361
0.083000000000000;0.123061799397394;0.123832602522660;0.223666029946361
0.084000000000000;0.124699305569243;0.125483403514416;0.223666029946361
0.085000000000000;0.126337954580504;0.127135382132878;0.223666029946361
0.086000000000000;0.127977719572789;0.128788510145149;0.223666029946361
0.087000000000000;0.129618574401197;0.130442760043131;0.223666029946361
0.088000000000000;0.131260493609918;0.132098105018761;0.223666029946361
0.089000000000000;0.132903452408442;0.133754518939780;0.223666029946361
0.090000000000000;0.134547426649021;0.135411976326814;0.223666029946361
0.091000000000000;0.136192392805339;0.137070452331770;0.223666029946361
0.092000000000000;0.137838327951777;0.138729922716725;0.223666029946361
0.093000000000000;0.139485209743933;0.140390363834263;0.223666029946361
0.094000000000000;0.141133016399258;0.142051752607659;0.223666029946361
0.095000000000000;0.142781726679665;0.143714066513472;0.223666029946361
0.096000000000000;0.144431319873589;0.145377283563172;0.223666029946361
0.097000000000000;0.146081775779920;0.147041382287090;0.223666029946361
0.098000000000000;0.147733074691492;0.148706341717467;0.223666029946361
0.099000000000000;0.149385197380596;0.150372141374107;0.223666029946361
0.100000000000000;0.151038125083258;0.152038761248142;0.223666029946361
0.101000000000000;0.152691839486324;0.153706181789395;0.223666029946361
0.102000000000000;0.154346322712603;0.155374383890910;0.223666029946361
0.103000000000000;0.156001557309263;0.157043348877779;0.223666029946361
0.104000000000000;0.157657526234169;0.158713058492942;0.223666029946361
0.105000000000000;0.159314212844465;0.160383494885950;0.223666029946361
0.106000000000000;0.160971600884432;0.162054640600504;0.223666029946361
0.107000000000000;0.162629674475179;0.163726478564413;0.223666029946361
0.108000000000000;0.164288418102931;0.165398992077471;0.223666029946361
0.109000000000000;0.165947816609386;0.167072164802039;0.223666029946361
0.110000000000000;0.167607855181405;0.168745980752543;0.223666029946361
0.111000000000000;0.169268519341262;0.170420424285663;0.223666029946361
0.112000000000000;0.170929794938181;0.172095480092117;0.223666029946361
0.113000000000000;0.172591668138408;0.173771133186377;0.223666029946361
0.114000000000000;0.174254125416339;0.175447368897752;0.223666029946361
0.115000000000000;0.175917153547238;0.177124172863377;0.223666029946361
0.116000000000000;0.177580739599318;0.178801531020386;0.223666029946361
0.117000000000000;0.179244870924537;0.180479429596170;0.223666029946361
0.118000000000000;0.180909535152152;0.182157855102360;0.223666029946361
0.119000000000000;0.182574720181453;0.183836794327459;0.223666029946361
0.120000000000000;0.184240414174049;0.185516234329092;0.223666029946361
0.121000000000000;0.185906605547118;0.187196162427064;0.223666029946361
0.122000000000000;0.187573282969259;0.188876566200229;0.223666029946361
0.123000000000000;0.189240435349646;0.190557433473872;0.223666029946361
0.124000000000000;0.190908051835837;0.192238752319257;0.223666029946361
0.125000000000000;0.192576121805356;0.193920511044019;0.223666029946361
0.126000000000000;0.194244634862660;0.195602698190340;0.223666029946361
0.127000000000000;0.195913580830219;0.197285302524765;0.223666029946361
0.128000000000000;0.197582949745284;0.198968313035721;0.223666029946361
0.129000000000000;0.199252731854620;0.200651718928532;0.223666029946361
0.130000000000000;0.200922917606367;0.202335509615761;0.223666029946361
0.131000000000000;0.202593497651601;0.204019674721531;0.223666029946361
0.132000000000000;0.204264462833801;0.205704204068679;0.223666029946361
0.133000000000000;0.205935804184272;0.207389087674307;0.223666029946361
0.134000000000000;0.207607512921670;0.209074315750937;0.223666029946361
0.135000000000000;0.209279580444406;0.210759878697431;0.223666029946361
0.136000000000000;0.210951998329117;0.212445767098659;0.223666029946361
0.137000000000000;0.212624758323852;0.214131971717966;0.223666029946361
0.138000000000000;0.214297852341831;0.215818483489421;0.223666029946361
0.139000000000000;0.215971272467862;0.217505293529001;0.223666029946361
0.140000000000000;0.217645010940759;0.219192393110854;0.223666029946361
0.141000000000000;0.219319060161221;0.220879773680792;0.223666029946361
0.142000000000000;0.220993412679268;0.222567426838801;0.223666029946361
0.143000000000000;0.222668061200900;0.224255344350826;0.223666029946361
0.144000000000000;0.224342998576000;0.225943518132982;0.223666029946361
0.145000000000000;0.226018217793571;0.227631940245624;0.223666029946361
0.146000000000000;0.227693711993502;0.229320602912202;0.223666029946361
0.147000000000000;0.229369474440707;0.231009498482957;0.223666029946361
0.148000000000000;0.231045498545724;0.232698619466375;0.223666029946361
0.149000000000000;0.232721777844418;0.234387958500443;0.223666029946361
0.150000000000000;0.234398306003537;0.236077508363152;0.223666029946361
0.151000000000000;0.236075076813837;0.237767261963094;0.223666029946361
0.152000000000000;0.237752084189051;0.239457212338940;0.223666029946361
0.153000000000000;0.239429322167414;0.241147352663255;0.223666029946361
0.154000000000000;0.241106784901139;0.242837676228405;0.223666029946361
0.155000000000000;0.242784466657668;0.244528176449390;0.223666029946361
0.156000000000000;0.244462361824864;0.246218846872219;0.223666029946361
0.157000000000000;0.246140464893974;0.247909681150634;0.223666029946361
0.158000000000000;0.247818770470140;0.249600673062428;0.223666029946361
0.159000000000000;0.249497273255824;0.251291816486635;0.223666029946361
0.160000000000000;0.251175968065403;0.252983105425211;0.223666029946361
0.161000000000000;0.252854849816834;0.254674533991225;0.223666029946361
0.162000000000000;0.254533913525068;0.256366096402328;0.223666029946361
0.163000000000000;0.256213154295596;0.258057786970850;0.223666029946361
0.164000000000000;0.257892567346662;0.259749600136447;0.223666029946361
0.165000000000000;0.259572147979987;0.261441530425447;0.223666029946361
0.166000000000000;0.261251891587320;0.263133572462216;0.223666029946361
0.167000000000000;0.262931793651166;0.264825720968568;0.223666029946361
0.168000000000000;0.264611849755693;0.266517970782282;0.223666029946361
0.169000000000000;0.266292055552326;0.268210316806711;0.223666029946361
0.170000000000000;0.267972406798943;0.269902754070292;0.223666029946361
0.171000000000000;0.269652899314527;0.271595277659312;0.223666029946361
0.172000000000000;0.271333529014386;0.273287882772032;0.223666029946361
0.173000000000000;0.273014291885911;0.274980564681851;0.223666029946361
0.174000000000000;0.274695184011396;0.276673318772736;0.223666029946361
0.175000000000000;0.276376201534361;0.278366140489861;0.223666029946361
0.176000000000000;0.278057340684985;0.280059025379846;0.223666029946361
0.177000000000000;0.279738597742146;0.281751969033337;0.223666029946361
0.178000000000000;0.281419969097667;0.283444967179689;0.223666029946361
0.179000000000000;0.283101451192269;0.285138015594998;0.223666029946361
0.180000000000000;0.284783040535052;0.286831110132902;0.223666029946361
0.181000000000000;0.286464733697076;0.288524246711484;0.223666029946361
0.182000000000000;0.288146527355987;0.290217421383238;0.223666029946361
0.183000000000000;0.289828418202232;0.291910630195653;0.223666029946361
0.184000000000000;0.291510403027354;0.293603869323114;0.223666029946361
0.185000000000000;0.293192478684004;0.295297135007823;0.223666029946361
0.186000000000000;0.294874642059304;0.296990423521461;0.223666029946361
0.187000000000000;0.296556890147121;0.298683731271806;0.223666029946361
0.188000000000000;0.298239219968983;0.300377054686639;0.223666029946361
0.189000000000000;0.299921628622323;0.302070390287641;0.223666029946361
0.190000000000000;0.301604113236307;0.303763734622662;0.223666029946361
0.191000000000000;0.303286671036067;0.305457084362448;0.223666029946361
0.192000000000000;0.304969299268374;0.307150436190897;0.223666029946361
0.193000000000000;0.306651995253386;0.308843786885306;0.223666029946361
0.194000000000000;0.308334756356381;0.310537133269540;0.223666029946361
0.195000000000000;0.310017580019806;0.312230472263943;0.223666029946361
0.196000000000000;0.311700463724345;0.313923800830368;0.223666029946361
0.197000000000000;0.313383404969683;0.315617115944156;0.223666029946361
0.198000000000000;0.315066401345744;0.317310414698312;0.223666029946361
0.199000000000000;0.316749450466140;0.319003694202085;0.223666029946361
0.200000000000000;0.318432550054711;0.320696951717113;0.223666029946361
0.201000000000000;0.320115697769055;0.322390184392554;0.223666029946361
0.202000000000000;0.321798891430268;0.324083389604547;0.223666029946361
0.203000000000000;0.323482128855398;0.325776564709628;0.223666029946361
0.204000000000000;0.325165407866372;0.327469707060216;0.223666029946361
0.205000000000000;0.326848726409713;0.329162814180268;0.223666029946361
0.206000000000000;0.328532082405827;0.330855883543010;0.223666029946361
0.207000000000000;0.330215473843841;0.332548912711068;0.223666029946361
0.208000000000000;0.331898898810633;0.334241899380757;0.223666029946361
0.209000000000000;0.333582355314936;0.335934841120229;0.223666029946361
0.210000000000000;0.335265841546520;0.337627735759892;0.223666029946361
0.211000000000000;0.336949355574053;0.339320580937298;0.223666029946361
0.212000000000000;0.338632895666305;0.341013374576283;0.223666029946361
0.213000000000000;0.340316460055920;0.342706114536257;0.223666029946361
0.214000000000000;0.342000046980136;0.344398798678564;0.223666029946361
0.215000000000000;0.343683654758457;0.346091424978130;0.223666029946361
0.216000000000000;0.345367281710731;0.347783991397584;0.223666029946361
0.217000000000000;0.347050926280778;0.349476496075841;0.223666029946361
0.218000000000000;0.348734586858078;0.351168937064698;0.223666029946361
0.219000000000000;0.350418261894404;0.352861312502612;0.223666029946361
0.220000000000000;0.352101949877372;0.354553620571547;0.223666029946361
0.221000000000000;0.353785649328171;0.356245859496423;0.223666029946361
0.222000000000000;0.355469358800102;0.357938027544566;0.223666029946361
0.223000000000000;0.357153076879481;0.359630123025175;0.223666029946361
0.224000000000000;0.358836802185745;0.361322144288798;0.223666029946361
0.225000000000000;0.360520533406090;0.363014089786451;0.223666029946361
0.226000000000000;0.362204269101230;0.364705957770947;0.223666029946361
0.227000000000000;0.363888008146135;0.366397746956400;0.223666029946361
0.228000000000000;0.365571749152475;0.368089455660621;0.223666029946361
0.229000000000000;0.367255490940743;0.369781082515423;0.223666029946361
0.230000000000000;0.368939232256532;0.371472626026896;0.223666029946361
0.231000000000000;0.370622972020768;0.373164084954682;0.223666029946361
0.232000000000000;0.372306709093944;0.374855457973217;0.223666029946361
0.233000000000000;0.373990442205895;0.376546743559668;0.223666029946361
0.234000000000000;0.375674170417466;0.378237940674848;0.223666029946361
0.235000000000000;0.377357892616999;0.379929048017751;0.223666029946361
0.236000000000000;0.379041607766344;0.381620064397659;0.223666029946361
0.237000000000000;0.380725314908467;0.383310988741305;0.223666029946361
0.238000000000000;0.382409012951614;0.385001819772385;0.223666029946361
0.239000000000000;0.384092700975244;0.386692556467725;0.223666029946361
0.240000000000000;0.385776378026705;0.388383197750615;0.223666029946361
0.241000000000000;0.387460043212857;0.390073742630830;0.223666029946361
0.242000000000000;0.389143695683657;0.391764190180774;0.223666029946361
0.243000000000000;0.390827334540800;0.393454539401115;0.223666029946361
0.244000000000000;0.392510958940422;0.395144789373267;0.223666029946361
0.245000000000000;0.394194568064333;0.396834939211001;0.223666029946361
0.246000000000000;0.395878161119198;0.398524988060101;0.223666029946361
0.247000000000000;0.397561737396533;0.400214935201937;0.223666029946361
0.248000000000000;0.399245295931261;0.401904779533561;0.223666029946361
0.249000000000000;0.400928836203429;0.403594520606521;0.223666029946361
0.250000000000000;0.402612357439135;0.405284157587396;0.223666029946361
0.251000000000000;0.404295859009596;0.406973689877315;0.223666029946361
0.252000000000000;0.405979340041583;0.408663116506431;0.223666029946361
0.253000000000000;0.407662800093913;0.410352437136211;0.223666029946361
0.254000000000000;0.409346238523597;0.412041651129497;0.223666029946361
0.255000000000000;0.411029654643638;0.413730757799392;0.223666029946361
0.256000000000000;0.412713047785277;0.415419756475036;0.223666029946361
0.257000000000000;0.414396417613009;0.417108646977707;0.223666029946361
0.258000000000000;0.416079763343121;0.418797428461282;0.223666029946361
0.259000000000000;0.417763084683746;0.420486100823810;0.223666029946361
0.260000000000000;0.419446380818613;0.422174663167797;0.223666029946361
0.261000000000000;0.421129651592718;0.423863115594227;0.223666029946361
0.262000000000000;0.422812896177948;0.425551457191564;0.223666029946361
0.263000000000000;0.424496114387409;0.427239688003450;0.223666029946361
0.264000000000000;0.426179305818264;0.428927807759312;0.223666029946361
0.265000000000000;0.427862469657637;0.430615815574264;0.223666029946361
0.266000000000000;0.429545606026853;0.432303711955844;0.223666029946361
0.267000000000000;0.431228714068483;0.433991495950629;0.223666029946361
0.268000000000000;0.432911793677126;0.435679167738400;0.223666029946361
0.269000000000000;0.434594844364000;0.437366726905556;0.223666029946361
0.270000000000000;0.436277866069526;0.439054173696460;0.223666029946361
0.271000000000000;0.437960857999949;0.440741507253005;0.223666029946361
0.272000000000000;0.439643820370267;0.442428728231214;0.223666029946361
0.273000000000000;0.441326752395937;0.444115835787916;0.223666029946361
0.274000000000000;0.443009654169670;0.445802830390269;0.223666029946361
0.275000000000000;0.444692525407524;0.447489711936592;0.223666029946361
0.276000000000000;0.446375365767759;0.449176480259031;0.223666029946361
