Density;f;f0;u;P;T
0.000000000030978;0.000000000000000;-0.000000000000008;0.324522437852016
0.001000000000000;0.000800117134751;0.000800656527449;0.324522437852016
0.002000000000000;0.002044874748114;0.002046496701767;0.324522437852016
0.003000000000000;0.003454156837162;0.003457492830906;0.324522437852016
0.004000000000000;0.004968609904906;0.004974159909547;0.324522437852016
0.005000000000000;0.006560046256573;0.006568270644725;0.324522437852016
0.006000000000000;0.008211879038565;0.008223217568427;0.324522437852016
0.007000000000000;0.009913165706028;0.009928041277828;0.324522437852016
0.008000000000000;0.011656144147880;0.011674964127702;0.324522437852016
0.009000000000000;0.013435023484446;0.013458180525161;0.324522437852016
0.010000000000000;0.015245319699665;0.015273192480574;0.324522437852016
0.011000000000000;0.017083459850034;0.017116413864541;0.324522437852016
0.012000000000000;0.018946531431226;0.018984919837028;0.324522437852016
0.013000000000000;0.020832115929264;0.020876280433787;0.324522437852016
0.014000000000000;0.022738173900868;0.022788445645545;0.324522437852016
0.015000000000000;0.024662963129359;0.024719663543602;0.324522437852016
0.016000000000000;0.026604978645238;0.026668420247052;0.324522437852016
0.017000000000000;0.028562908033229;0.028633395172081;0.324522437852016
0.018000000000000;0.030535597056905;0.030613426584424;0.324522437852016
0.019000000000000;0.032522023218142;0.032607485096738;0.324522437852016
0.020000000000000;0.034521274541405;0.034614652377776;0.324522437852016
0.021000000000000;0.036532533096002;0.036634104624463;0.324522437852016
0.022000000000000;0.038555061591603;0.038665099110410;0.324522437852016
0.023000000000000;0.040588191860871;0.040706962598193;0.324522437852016
0.024000000000000;0.042631316056908;0.042759082508986;0.324522437852016
0.025000000000000;0.044683878977992;0.044820899203257;0.324522437852016
0.026000000000000;0.046745371689629;0.046891899569581;0.324522437852016
0.027000000000000;0.048815326133894;0.048971611603423;0.324522437852016
0.028000000000000;0.050893310541377;0.051059599792144;0.324522437852016
0.029000000000000;0.052978925501854;0.053155461161930;0.324522437852016
0.030000000000000;0.055071800579799;0.055258821872290;0.324522437852016
0.031000000000000;0.057171591383621;0.057369334266629;0.324522437852016
0.032000000000000;0.059277977015198;0.059486674305179;0.324522437852016
0.033000000000000;0.061390657840069;0.061610539320405;0.324522437852016
0.034000000000000;0.063509353529533;0.063740646045900;0.324522437852016
0.035000000000000;0.065633801334514;0.065876728878457;0.324522437852016
0.036000000000000;0.067763754557978;0.068018538339913;0.324522437852016
0.037000000000000;0.069898981198205;0.070165839710948;0.324522437852016
0.038000000000000;0.072039262739737;0.072318411813537;0.324522437852016
0.039000000000000;0.074184393072501;0.074476045922431;0.324522437852016
0.040000000000000;0.076334177522598;0.076638544789083;0.324522437852016
0.041000000000000;0.078488431980732;0.078805721763908;0.324522437852016
0.042000000000000;0.080646982116332;0.080977400004854;0.324522437852016
0.043000000000000;0.082809662667099;0.083153411761964;0.324522437852016
0.044000000000000;0.084976316795183;0.085333597729062;0.324522437852016
0.045000000000000;0.087146795502361;0.087517806454915;0.324522437852016
0.046000000000000;0.089320957097644;0.089705893807215;0.324522437852016
0.047000000000000;0.091498666711573;0.091897722483637;0.324522437852016
0.048000000000000;0.093679795852204;0.094093161564928;0.324522437852016
0.049000000000000;0.095864221998439;0.096292086105637;0.324522437852016
0.050000000000000;0.098051828226841;0.098494376758622;0.324522437852016
0.051000000000000;0.100242502868574;0.100699919429925;0.324522437852016
0.052000000000000;0.102436139193522;0.102908604961071;0.324522437852016
0.053000000000000;0.104632635118902;0.105120328836058;0.324522437852016
0.054000000000000;0.106831892940122;0.107334990910792;0.324522437852016
0.055000000000000;0.109033819081719;0.109552495162785;0.324522437852016
0.056000000000000;0.111238323866616;0.111772749459315;0.324522437852016
0.057000000000000;0.113445321302028;0.113995665342399;0.324522437852016
0.058000000000000;0.115654728880526;0.116221157829054;0.324522437852016
0.059000000000000;0.117866467394943;0.118449145225516;0.324522437852016
0.060000000000000;0.120080460766016;0.120679548954327;0.324522437852016
0.061000000000000;0.122296635881526;0.122912293393004;0.324522437852016
0.062000000000000;0.124514922446199;0.125147305723574;0.324522437852016
0.063000000000000;0.126735252841337;0.127384515791943;0.324522437852016
0.064000000000000;0.128957561993448;0.129623855976319;0.324522437852016
0.065000000000000;0.131181787251119;0.131865261063969;0.324522437852016
0.066000000000000;0.133407868269679;0.134108668135843;0.324522437852016
0.067000000000000;0.135635746902830;0.136354016458226;0.324522437852016
0.068000000000000;0.137865367100641;0.138601247380791;0.324522437852016
0.069000000000000;0.140096674814053;0.140850304241272;0.324522437852016
0.070000000000000;0.142329617904366;0.143101132275110;0.324522437852016
0.071000000000000;0.144564146058558;0.145353678531038;0.324522437852016
0.072000000000000;0.146800210708763;0.147607891790789;0.324522437852016
0.073000000000000;0.149037764957050;0.149863722494292;0.324522437852016
0.074000000000000;0.151276763503449;0.152121122667953;0.324522437852016
0.075000000000000;0.153517162578748;0.154380045857946;0.324522437852016
0.076000000000000;0.155758919880319;0.156640447066418;0.324522437852016
0.077000000000000;0.158001994511422;0.158902282691248;0.324522437852016
0.078000000000000;0.160246346924055;0.161165510469439;0.324522437852016
0.079000000000000;0.162491938864556;0.163430089423262;0.324522437852016
0.080000000000000;0.164738733321264;0.165695979808302;0.324522437852016
0.081000000000000;0.166986694476464;0.167963143066219;0.324522437852016
0.082000000000000;0.169235787658919;0.170231541777670;0.324522437852016
0.083000000000000;0.171485979299637;0.172501139618717;0.324522437852016
0.084000000000000;0.173737236890142;0.174771901319825;0.324522437852016
0.085000000000000;0.175989528941848;0.177043792625796;0.324522437852016
0.086000000000000;0.178242824947482;0.179316780257746;0.324522437852016
0.087000000000000;0.180497095345337;0.181590831878237;0.324522437852016
0.088000000000000;0.182752311483943;0.183865916056457;0.324522437852016
0.089000000000000;0.185008445588902;0.186142002235789;0.324522437852016
0.090000000000000;0.187265470730973;0.188419060702506;0.324522437852016
0.091000000000000;0.189523360796707;0.190697062557409;0.324522437852016
0.092000000000000;0.191782090457749;0.192975979685262;0.324522437852016
0.093000000000000;0.194041635144739;0.195255784729941;0.324522437852016
0.094000000000000;0.196301971019487;0.197536451066821;0.324522437852016
0.095000000000000;0.198563074951100;0.199817952780195;0.324522437852016
0.096000000000000;0.200824924489714;0.202100264637009;0.324522437852016
0.097000000000000;0.203087497845458;0.204383362067206;0.324522437852016
0.098000000000000;0.205350773864499;0.206667221139989;0.324522437852016
0.099000000000000;0.207614732006652;0.208951818541776;0.324522437852016
0.100000000000000;0.209879352328713;0.211237131561509;0.324522437852016
0.101000000000000;0.212144615460726;0.213523138066105;0.324522437852016
0.102000000000000;0.214410502589412;0.215809816485683;0.324522437852016
0.103000000000000;0.216676995437188;0.218097145791779;0.324522437852016
0.104000000000000;0.218944076250200;0.220385105488378;0.324522437852016
0.105000000000000;0.221211727774714;0.222673675586197;0.324522437852016
0.106000000000000;0.223479933247064;0.224962836595658;0.324522437852016
0.107000000000000;0.225748676373254;0.227252569505027;0.324522437852016
0.108000000000000;0.228017941317003;0.229542855770510;0.324522437852016
0.109000000000000;0.230287712685591;0.231833677302388;0.324522437852016
0.110000000000000;0.232557975514288;0.234125016449611;0.324522437852016
0.111000000000000;0.234828715252974;0.236416855986646;0.324522437852016
0.112000000000000;0.237099917755762;0.238709179104959;0.324522437852016
0.113000000000000;0.239371569264697;0.241001969395225;0.324522437852016
0.114000000000000;0.241643656404165;0.243295210845090;0.324522437852016
0.115000000000000;0.243916166162672;0.245588887818199;0.324522437852016
0.116000000000000;0.246189085886601;0.247882985051199;0.324522437852016
0.117000000000000;0.248462403262582;0.250177487632901;0.324522437852016
0.118000000000000;0.250736106320293;0.252472381013189;0.324522437852016
0.119000000000000;0.253010183410524;0.254767650976474;0.324522437852016
0.120000000000000;0.255284623196312;0.257063283633505;0.324522437852016
0.121000000000000;0.257559414654148;0.259359265427480;0.324522437852016
0.122000000000000;0.259834547054682;0.261655583110032;0.324522437852016
0.123000000000000;0.262110009956410;0.263952223737376;0.324522437852016
0.124000000000000;0.264385793197135;0.266249174660783;0.324522437852016
0.125000000000000;0.266661886894643;0.268546423531999;0.324522437852016
0.126000000000000;0.268938281427528;0.270843958279367;0.324522437852016
0.127000000000000;0.271214967424910;0.273141767095881;0.324522437852016
0.128000000000000;0.273491935780822;0.275439838464742;0.324522437852016
0.129000000000000;0.275769177619314;0.277738161110070;0.324522437852016
0.130000000000000;0.278046684310278;0.280036724025588;0.324522437852016
0.131000000000000;0.280324447449318;0.282335516446460;0.324522437852016
0.132000000000000;0.282602458856833;0.284634527852467;0.324522437852016
0.133000000000000;0.284880710571617;0.286933747960254;0.324522437852016
0.134000000000000;0.287159194846465;0.289233166721404;0.324522437852016
0.135000000000000;0.289437904130854;0.291532774297967;0.324522437852016
0.136000000000000;0.291716831091646;0.293832561097763;0.324522437852016
0.137000000000000;0.293995968576407;0.296132517720293;0.324522437852016
0.138000000000000;0.296275309631724;0.298432634989266;0.324522437852016
0.139000000000000;0.298554847482301;0.300732903921657;0.324522437852016
0.140000000000000;0.300834575540083;0.303033315745292;0.324522437852016
0.141000000000000;0.303114487394169;0.305333861884562;0.324522437852016
0.142000000000000;0.305394576804322;0.307634533955122;0.324522437852016
0.143000000000000;0.307674837685253;0.309935323740970;0.324522437852016
0.144000000000000;0.309955264125454;0.312236223226447;0.324522437852016
0.145000000000000;0.312235850374260;0.314537224575328;0.324522437852016
0.146000000000000;0.314516590840234;0.316838320135791;0.324522437852016
0.147000000000000;0.316797480055401;0.319139502383054;0.324522437852016
0.148000000000000;0.319078512735253;0.321440764016792;0.324522437852016
0.149000000000000;0.321359683717266;0.323742097864860;0.324522437852016
0.150000000000000;0.323640987983079;0.326043496924064;0.324522437852016
0.151000000000000;0.325922420651916;0.328344954347887;0.324522437852016
0.152000000000000;0.328203976976112;0.330646463443157;0.324522437852016
0.153000000000000;0.330485652338054;0.332948017666823;0.324522437852016
0.154000000000000;0.332767442247139;0.335249610622805;0.324522437852016
0.155000000000000;0.335049342336817;0.337551236058943;0.324522437852016
0.156000000000000;0.337331348361512;0.339852887864021;0.324522437852016
0.157000000000000;0.339613456193583;0.342154560064880;0.324522437852016
0.158000000000000;0.341895661820772;0.344456246823601;0.324522437852016
0.159000000000000;0.344177961344266;0.346757942434771;0.324522437852016
0.160000000000000;0.346460350978766;0.349059641330803;0.324522437852016
0.161000000000000;0.348742827027842;0.351361338039408;0.324522437852016
0.162000000000000;0.351025385933926;0.353663027269583;0.324522437852016
0.163000000000000;0.353308024202938;0.355964703786094;0.324522437852016
0.164000000000000;0.355590738483790;0.358266362547368;0.324522437852016
0.165000000000000;0.357873525468880;0.360567998538884;0.324522437852016
0.166000000000000;0.360156382004282;0.362869606953946;0.324522437852016
0.167000000000000;0.362439305004360;0.365171183061232;0.324522437852016
0.168000000000000;0.364722291439414;0.367472722181250;0.324522437852016
0.169000000000000;0.367005338448242;0.369774219874667;0.324522437852016
0.170000000000000;0.369288443160806;0.372075671648771;0.324522437852016
0.171000000000000;0.371571602889865;0.374377073276561;0.324522437852016
0.172000000000000;0.373854814961687;0.376678420520368;0.324522437852016
0.173000000000000;0.376138076785801;0.378979709250043;0.324522437852016
0.174000000000000;0.378421385907143;0.381280935517648;0.324522437852016
0.175000000000000;0.380704739907604;0.383582095410861;0.324522437852016
0.176000000000000;0.382988136430791;0.385883185093513;0.324522437852016
0.177000000000000;0.385271573222509;0.388184200864001;0.324522437852016
0.178000000000000;0.387555048097254;0.390485139107113;0.324522437852016
0.179000000000000;0.389838558918908;0.392785996267246;0.324522437852016
0.180000000000000;0.392122103641119;0.395086768907466;0.324522437852016
0.181000000000000;0.394405680296105;0.397387453696280;0.324522437852016
0.182000000000000;0.396689286956422;0.399688047347283;0.324522437852016
0.183000000000000;0.398972921768155;0.401988546674365;0.324522437852016
0.184000000000000;0.401256582941377;0.404288948574289;0.324522437852016
0.185000000000000;0.403540268746017;0.406589250025283;0.324522437852016
0.186000000000000;0.405823977514975;0.408889448085659;0.324522437852016
0.187000000000000;0.408107707661109;0.411189539933989;0.324522437852016
0.188000000000000;0.410391457573790;0.413489522692309;0.324522437852016
0.189000000000000;0.412675225799307;0.415789393723241;0.324522437852016
0.190000000000000;0.414959010874744;0.418089150360966;0.324522437852016
0.191000000000000;0.417242811386204;0.420388790007732;0.324522437852016
0.192000000000000;0.419526626053010;0.422688310267628;0.324522437852016
0.193000000000000;0.421810453561412;0.424987708678033;0.324522437852016
0.194000000000000;0.424094292685529;0.427286982917744;0.324522437852016
0.195000000000000;0.426378142201995;0.429586130657920;0.324522437852016
0.196000000000000;0.428662000964338;0.431885149686097;0.324522437852016
0.197000000000000;0.430945867909135;0.434184037913046;0.324522437852016
0.198000000000000;0.433229741965549;0.436482793234728;0.324522437852016
0.199000000000000;0.435513622119341;0.438781413638492;0.324522437852016
0.200000000000000;0.437797507404187;0.441079897175468;0.324522437852016
0.201000000000000;0.440081396922260;0.443378242007239;0.324522437852016
0.202000000000000;0.442365289732437;0.445676446232035;0.324522437852016
0.203000000000000;0.444649184952208;0.447974508033331;0.324522437852016
0.204000000000000;0.446933081862883;0.450272425856339;0.324522437852016
0.205000000000000;0.449216979654976;0.452570197991473;0.324522437852016
0.206000000000000;0.451500877623302;0.454867822921426;0.324522437852016
0.207000000000000;0.453784774961557;0.457165298949264;0.324522437852016
0.208000000000000;0.456068671075697;0.459462624734664;0.324522437852016
0.209000000000000;0.458352565289031;0.461759798789439;0.324522437852016
0.210000000000000;0.460636457040304;0.464056819830651;0.324522437852016
0.211000000000000;0.462920345729612;0.466353686512278;0.324522437852016
0.212000000000000;0.465204230812399;0.468650397580380;0.324522437852016
0.213000000000000;0.467488111814152;0.470946951900158;0.324522437852016
0.214000000000000;0.469771988168687;0.473243348207968;0.324522437852016
0.215000000000000;0.472055859378506;0.475539585348854;0.324522437852016
0.216000000000000;0.474339725133880;0.477835662464675;0.324522437852016
0.217000000000000;0.476623585000722;0.480131578521214;0.324522437852016
0.218000000000000;0.478907438497976;0.482427332421545;0.324522437852016
0.219000000000000;0.481191285360075;0.484722923412975;0.324522437852016
0.220000000000000;0.483475125253641;0.487018350646655;0.324522437852016
0.221000000000000;0.485758957795141;0.489313613211711;0.324522437852016
0.222000000000000;0.488042782740363;0.491608710428933;0.324522437852016
0.223000000000000;0.490326599780541;0.493903641529704;0.324522437852016
0.224000000000000;0.492610408626543;0.496198405784962;0.324522437852016
0.225000000000000;0.494894209156608;0.498493002746127;0.324522437852016
0.226000000000000;0.497178001107358;0.500787431747881;0.324522437852016
0.227000000000000;0.499461784278798;0.503081692254753;0.324522437852016
0.228000000000000;0.501745558492571;0.505375783774318;0.324522437852016
0.229000000000000;0.504029323594835;0.507669705856666;0.324522437852016
0.230000000000000;0.506313079510988;0.509963458213439;0.324522437852016
0.231000000000000;0.508596825955194;0.512257040224453;0.324522437852016
0.232000000000000;0.510880562880074;0.514550451679657;0.324522437852016
0.233000000000000;0.513164290185088;0.516843692274355;0.324522437852016
0.234000000000000;0.515448007850872;0.519136761873582;0.324522437852016
0.235000000000000;0.517731715776383;0.521429660200124;0.324522437852016
0.236000000000000;0.520015413983510;0.523722387243826;0.324522437852016
0.237000000000000;0.522299102147945;0.526014942407804;0.324522437852016
0.238000000000000;0.524582780572248;0.528307326153814;0.324522437852016
0.239000000000000;0.526866449057999;0.530599538110356;0.324522437852016
0.240000000000000;0.529150107649800;0.532891578386486;0.324522437852016
0.241000000000000;0.531433756225529;0.535183446786316;0.324522437852016
0.242000000000000;0.533717395000816;0.537475143672695;0.324522437852016
0.243000000000000;0.536001024016451;0.539766669183951;0.324522437852016
0.244000000000000;0.538284642985037;0.542058022930221;0.324522437852016
0.245000000000000;0.540568252333338;0.544349205693705;0.324522437852016
0.246000000000000;0.542851851961917;0.546640217409009;0.324522437852016
0.247000000000000;0.545135441844637;0.548931058184859;0.324522437852016
0.248000000000000;0.547419022148135;0.551221728456155;0.324522437852016
0.249000000000000;0.549702592805121;0.553512228258183;0.324522437852016
0.250000000000000;0.551986154225906;0.555802558458420;0.324522437852016
0.251000000000000;0.554269706270019;0.558092719012702;0.324522437852016
0.252000000000000;0.556553249141247;0.560382710534137;0.324522437852016
0.253000000000000;0.558836782712466;0.562672533025527;0.324522437852016
0.254000000000000;0.561120307501410;0.564962187615062;0.324522437852016
0.255000000000000;0.563403823298422;0.567251674230529;0.324522437852016
0.256000000000000;0.565687330436724;0.569540993754118;0.324522437852016
0.257000000000000;0.567970829022226;0.571830146629313;0.324522437852016
0.258000000000000;0.570254319329663;0.574119133702864;0.324522437852016
0.259000000000000;0.572537801059673;0.576407954832365;0.324522437852016
0.260000000000000;0.574821274924951;0.578696611568376;0.324522437852016
0.261000000000000;0.577104740788382;0.580985104075232;0.324522437852016
0.262000000000000;0.579388198816902;0.583273433057113;0.324522437852016
0.263000000000000;0.581671649455997;0.585561599671753;0.324522437852016
0.264000000000000;0.583955092555385;0.587849604130057;0.324522437852016
0.265000000000000;0.586238528573122;0.590137447656392;0.324522437852016
0.266000000000000;0.588521957748498;0.592425131088216;0.324522437852016
0.267000000000000;0.590805380167502;0.594712655136090;0.324522437852016
0.268000000000000;0.593088795778098;0.597000020223896;0.324522437852016
0.269000000000000;0.595372205393371;0.599287228186141;0.324522437852016
0.270000000000000;0.597655608965331;0.601574279501675;0.324522437852016
0.271000000000000;0.599939006523086;0.603861174823025;0.324522437852016
0.272000000000000;0.602222398607163;0.606147915618218;0.324522437852016
0.273000000000000;0.604505785316894;0.608434502580484;0.324522437852016
0.274000000000000;0.606789167301549;0.610720937451406;0.324522437852016
0.275000000000000;0.609072544111811;0.613007220085792;0.324522437852016
0.276000000000000;0.611355916762893;0.615293352821245;0.324522437852016
