Density;f;f0;u;P;T
0.000001000000000;-0.000592017508098;-0.000592017508098;480.600000000000023
0.080702433985409;-11.432242941711225;-11.420548699810967;480.600000000000023
0.161404867970818;-18.561594912085130;-18.524281541012705;480.600000000000023
0.242107301956227;-24.163475721912160;-24.088661511784025;480.600000000000023
0.322809735941636;-28.824275349719546;-28.700146056970222;480.600000000000023
0.403512169927045;-32.819298816712617;-32.635045725019978;480.600000000000023
0.484214603912454;-36.308816966562972;-36.054599257026481;480.600000000000023
0.564917037897863;-39.397543927879006;-39.064259972346981;480.600000000000023
0.645619471883272;-42.159079949827600;-41.738158157631887;480.600000000000023
0.726321905868681;-44.647823651863945;-44.131084324320462;480.600000000000023
0.807024339854090;-46.905486968724126;-46.285060423353912;480.600000000000023
0.887726773839499;-48.964967770103144;-48.233245881749163;480.600000000000023
0.968429207824908;-50.852799154901788;-50.002404983695833;480.600000000000023
1.049131641810317;-52.590774035978711;-51.614541503699662;480.600000000000023
1.129834075795726;-54.197064151666410;-53.088024014723992;480.600000000000023
1.210536509781135;-55.687015084535076;-54.438385455460541;480.600000000000023
1.291238943766544;-57.073726070419809;-55.678906518823574;480.600000000000023
1.371941377751953;-58.368482506748975;-56.821051031991360;480.600000000000023
1.452643811737362;-59.581084999999391;-57.874797265660796;480.600000000000023
1.533346245722771;-60.720104071076427;-58.848894362805858;480.600000000000023
1.614048679708180;-61.793080346226546;-59.751063793745558;480.600000000000023
1.694751113693589;-62.806684040697640;-60.588159729305119;480.600000000000023
1.775453547678998;-63.766843550208456;-61.366298228132308;480.600000000000023
1.856155981664407;-64.678850252555350;-62.090962409273295;480.600000000000023
1.936858415649816;-65.547444756574379;-62.767088903502646;480.600000000000023
2.017560849635225;-66.376888506115165;-63.399139530927499;480.600000000000023
2.098263283620634;-67.171023717066660;-63.991161213433351;480.600000000000023
2.178965717606043;-67.933323912105450;-64.546836402299846;480.600000000000023
2.259668151591452;-68.666936848322564;-65.069525833158352;480.600000000000023
2.340370585576861;-69.374721200218175;-65.562304972998774;480.600000000000023
2.421073019562270;-70.059278108894176;-66.027995276507895;480.600000000000023
2.501775453547679;-70.722978497556667;-66.469191165099232;480.600000000000023
2.582477887533088;-71.367986796549403;-66.888283357008930;480.600000000000023
2.663180321518497;-71.996281723230652;-67.287479224517554;480.600000000000023
2.743882755503906;-72.609674515496792;-67.668820561202665;480.600000000000023
2.824585189489315;-73.209825028092027;-68.034199190227952;480.600000000000023
2.905287623474724;-73.798255993175076;-68.385370711169344;480.600000000000023
2.985990057460133;-74.376365717120450;-68.723966686697537;480.600000000000023
3.066692491445542;-74.945439353832668;-69.051505369075898;480.600000000000023
3.147394925430951;-75.506659104341921;-69.369401415198297;480.600000000000023
3.228097359416360;-76.061113230682452;-69.678974360150633;480.600000000000023
3.308799793401769;-76.609804237784417;-69.981456316088554;480.600000000000023
3.389502227387178;-77.153656263603381;-70.277998904525845;480.600000000000023
3.470204661372587;-77.693521743534873;-70.569679501061614;480.600000000000023
3.550907095357996;-78.230187340198412;-70.857506722444157;480.600000000000023
3.631609529343405;-78.764379386876101;-71.142425497301858;480.600000000000023
3.712311963328814;-79.296768969172263;-71.425321928414562;480.600000000000023
3.793014397314223;-79.827976060747375;-71.707026924151037;480.600000000000023
3.873716831299632;-80.358573987997261;-71.988320684664529;480.600000000000023
3.954419265285041;-80.889092712918284;-72.269935518882050;480.600000000000023
4.035121699270451;-81.420022447283472;-72.552559471402404;480.600000000000023
4.115824133255860;-81.951816473702266;-72.836838899810672;480.600000000000023
4.196526567241269;-82.484894021206685;-73.123381284933529;480.600000000000023
4.277229001226678;-83.019642965126820;-73.412758032905884;480.600000000000023
4.357931435212087;-83.556421508782350;-73.705505736531222;480.600000000000023
4.438633869197496;-84.095560861765989;-74.002129261945171;480.600000000000023
4.519336303182905;-84.637366785333256;-74.303103029414629;480.600000000000023
4.600038737168313;-85.182121680460952;-74.608873465060810;480.600000000000023
4.680741171153722;-85.730085462868715;-74.919859456754068;480.600000000000023
4.761443605139131;-86.281497645732628;-75.236454933862660;480.600000000000023
4.842146039124540;-86.836578606758962;-75.559030207180385;480.600000000000023
4.922848473109950;-87.395530176478516;-75.887932207486315;480.600000000000023
5.003550907095359;-87.958537714323725;-76.223487381792765;480.600000000000023
5.084253341080768;-88.525770077085284;-76.566001023990395;480.600000000000023
5.164955775066177;-89.097381231502311;-76.915759387195919;480.600000000000023
5.245658209051586;-89.673511637242967;-77.273031576237813;480.600000000000023
5.326360643036995;-90.254287321339547;-77.638067489718409;480.600000000000023
5.407063077022404;-90.839822453474255;-78.011101770642938;480.600000000000023
5.487765511007813;-91.430219213623118;-78.392353055414986;480.600000000000023
5.568467944993221;-92.025568495355714;-78.782024782709598;480.600000000000023
5.649170378978630;-92.625951242996408;-79.180307131892448;480.600000000000023
5.729872812964039;-93.231437541544139;-79.587374913666721;480.600000000000023
5.810575246949448;-93.842089380400168;-80.003392103866972;480.600000000000023
5.891277680934857;-94.457958789978647;-80.428507968460963;480.600000000000023
5.971980114920266;-95.079091009915885;-80.862862402323728;480.600000000000023
6.052682548905675;-95.705522213300910;-81.306581284038614;480.600000000000023
6.133384982891084;-96.337283088263050;-81.759782494187917;480.600000000000023
6.214087416876493;-96.974396268952731;-82.222570868785454;480.600000000000023
6.294789850861902;-97.616879147458690;-82.695042792930735;480.600000000000023
6.375492284847311;-98.264743278883856;-83.177284686653664;480.600000000000023
6.456194718832720;-98.917994699867620;-83.669372968975637;480.600000000000023
6.536897152818129;-99.576636564111752;-84.171378411975610;480.600000000000023
6.617599586803538;-100.240665000583391;-84.683358488370089;480.600000000000023
6.698302020788947;-100.910074114934986;-85.205365682554941;480.600000000000023
6.779004454774356;-101.584854132737249;-85.737443797591851;480.600000000000023
6.859706888759765;-102.264991571285123;-86.279627604584832;480.600000000000023
6.940409322745174;-102.950473537795432;-86.831950292685747;480.600000000000023
7.021111756730583;-103.641279763088164;-87.394429366830607;480.600000000000023
7.101814190715992;-104.337390894999118;-87.967080394681830;480.600000000000023
7.182516624701401;-105.038787274497324;-88.549914328650800;480.600000000000023
7.263219058686810;-105.745444818747544;-89.142930616781996;480.600000000000023
7.343921492672219;-106.457340149273620;-89.746125952046171;480.600000000000023
7.424623926657628;-107.174447719120565;-90.359488078891331;480.600000000000023
7.505326360643037;-107.896745685115874;-90.983006307173994;480.600000000000023
7.586028794628445;-108.624206990867449;-91.616656085579521;480.600000000000023
7.666731228613855;-109.356805101536025;-92.260409195926059;480.600000000000023
7.747433662599264;-110.094513726826804;-92.914231881083595;480.600000000000023
7.828136096584673;-110.837310732433593;-93.578091778430974;480.600000000000023
7.908838530570082;-111.585171223356340;-94.251946861832550;480.600000000000023
7.989540964555491;-112.338066998186989;-94.935744284129512;480.600000000000023
8.070243398540901;-113.095975312887646;-95.629434761294121;480.600000000000023
8.150945832526309;-113.858872485040933;-96.332961678064578;480.600000000000023
8.231648266511719;-114.626735096967323;-97.046263925646983;480.600000000000023
8.312350700497127;-115.399540257206539;-97.769276011716514;480.600000000000023
8.393053134482537;-116.177265610388616;-98.501928164803189;480.600000000000023
8.473755568467945;-116.959889231507844;-99.244146433330158;480.600000000000023
8.554458002453355;-117.747389284185203;-99.995852779556969;480.600000000000023
8.635160436438763;-118.539742797507458;-100.756961957276701;480.600000000000023
8.715862870424173;-119.336934259779724;-101.527397653219580;480.600000000000023
8.796565304409581;-120.138936965706776;-102.307060453187049;480.600000000000023
8.877267738394991;-120.945731427343787;-103.095860031754626;480.600000000000023
8.957970172380401;-121.757296325311046;-103.893699167089736;480.600000000000023
9.038672606365809;-122.573608556821995;-104.700474391720476;480.600000000000023
9.119375040351217;-123.394650453629040;-105.516089199345757;480.600000000000023
9.200077474336625;-124.220394421039359;-106.340427820272112;480.600000000000023
9.280779908322035;-125.050817928276459;-107.173381563886579;480.600000000000023
9.361482342307443;-125.885896196317319;-108.014835730041597;480.600000000000023
9.442184776292853;-126.725602932579960;-108.864672288435898;480.600000000000023
9.522887210278261;-127.569910357454262;-109.722769926463741;480.600000000000023
9.603589644263671;-128.418789021138139;-110.589004094167720;480.600000000000023
9.684292078249079;-129.272207570701397;-111.463247046403609;480.600000000000023
9.764994512234489;-130.130132535977651;-112.345367882319550;480.600000000000023
9.845696946219899;-130.992528125155758;-113.235232582245771;480.600000000000023
9.926399380205307;-131.859356022995769;-114.132704042086075;480.600000000000023
10.007101814190717;-132.730575191328995;-115.037642105293827;480.600000000000023
10.087804248176125;-133.606141673302773;-115.949903592517785;480.600000000000023
10.168506682161535;-134.486008402676077;-116.869342328989774;480.600000000000023
10.249209116146943;-135.370125019143671;-117.795809169725459;480.600000000000023
10.329911550132353;-136.258437690380930;-118.729152022607977;480.600000000000023
10.410613984117761;-137.150888941210184;-119.669215869417343;480.600000000000023
10.491316418103171;-138.047417489721227;-120.615842784862522;480.600000000000023
10.572018852088579;-138.947958089095891;-121.568871953675810;480.600000000000023
10.652721286073989;-139.852441373221694;-122.528139685818005;480.600000000000023
10.733423720059399;-140.760793711979318;-123.493479429847767;480.600000000000023
10.814126154044807;-141.672937115340204;-124.464721784499929;480.600000000000023
10.894828588030217;-142.588789246898983;-125.441694508514701;480.600000000000023
10.975531022015625;-143.508263259747309;-126.424222528760453;480.600000000000023
11.056233456001035;-144.431266493690288;-127.412127946687193;480.600000000000023
11.136935889986441;-145.357695857750059;-128.405217201238088;480.600000000000023
11.217638323971851;-146.287472907535715;-129.403345281608267;480.600000000000023
11.298340757957259;-147.220468502273462;-130.406287309813337;480.600000000000023
11.379043191942669;-148.156578013407852;-131.413866959875861;480.600000000000023
11.459745625928077;-149.095686152898423;-132.425892246877822;480.600000000000023
11.540448059913487;-150.037671418358372;-133.442168365969479;480.600000000000023
11.621150493898895;-150.982407319939739;-134.462497687998820;480.600000000000023
11.701852927884305;-151.929762394852162;-135.486679753697132;480.600000000000023
11.782555361869715;-152.879600055562662;-136.514511266432123;480.600000000000023
11.863257795855123;-153.831778554372875;-137.545786083546119;480.600000000000023
11.943960229840533;-154.786150993303863;-138.580295206301372;480.600000000000023
12.024662663825941;-155.742565337899919;-139.617826768434867;480.600000000000023
12.105365097811351;-156.700864430262584;-140.658166023345416;480.600000000000023
12.186067531796759;-157.660886003728621;-141.701095329913841;480.600000000000023
12.266769965782169;-158.622462700536801;-142.746394136972157;480.600000000000023
12.347472399767577;-159.585422092684780;-143.793838966424659;480.600000000000023
12.428174833752987;-160.549586705795292;-144.843203395028809;480.600000000000023
12.508877267738395;-161.514774045651222;-145.894258034837861;480.600000000000023
12.589579701723805;-162.480796626968640;-146.946770512312355;480.600000000000023
12.670282135709215;-163.447462003927797;-148.000505446097122;480.600000000000023
12.750984569694623;-164.414572802118755;-149.055224423467251;480.600000000000023
12.831687003680033;-165.381926751328450;-150.110685975441498;480.600000000000023
12.912389437665441;-166.349316718995425;-151.166645550560588;480.600000000000023
12.993091871650851;-167.316530743928809;-152.222855487323812;480.600000000000023
13.073794305636259;-168.283352070071714;-153.279064985285373;480.600000000000023
13.154496739621667;-169.249559180079160;-154.335020074798962;480.600000000000023
13.235199173607075;-170.214925828512293;-155.390463585403609;480.600000000000023
13.315901607592485;-171.179221074444939;-156.445135112843985;480.600000000000023
13.396604041577893;-172.142209313262754;-157.498770984715065;480.600000000000023
13.477306475563303;-173.103650307394588;-158.551104224718244;480.600000000000023
13.558008909548713;-174.063299215683884;-159.601864515517462;480.600000000000023
13.638711343534121;-175.020906621012188;-160.650778160181972;480.600000000000023
13.719413777519531;-175.976218554603548;-161.697568042200515;480.600000000000023
13.800116211504939;-176.928976519762756;-162.741953584048957;480.600000000000023
13.880818645490349;-177.878917507982067;-163.783650704298850;480.600000000000023
13.961521079475757;-178.825774012137117;-164.822371773240775;480.600000000000023
14.042223513461167;-179.769274031381883;-165.857825567009371;480.600000000000023
14.122925947446575;-180.709141066001678;-166.889717220184764;480.600000000000023
14.203628381431985;-181.645094097976539;-167.917748176847425;480.600000000000023
14.284330815417393;-182.576847550617771;-168.941616140066429;480.600000000000023
14.365033249402803;-183.504111216745429;-169.961015019790551;480.600000000000023
14.445735683388213;-184.426590139001519;-170.975634879117422;480.600000000000023
14.526438117373621;-185.343984417881956;-171.985161878916074;480.600000000000023
14.607140551359031;-186.255988914369510;-172.989278220767034;480.600000000000023
14.687842985344439;-187.162292809235538;-173.987662088191797;480.600000000000023
14.768545419329849;-188.062578991022519;-174.979987586142272;480.600000000000023
14.849247853315257;-188.956523289876799;-175.965924678708035;480.600000000000023
14.929950287300667;-189.843793686445650;-176.945139125015913;480.600000000000023
15.010652721286075;-190.724049840346026;-177.917292413275106;480.600000000000023
15.091355155271485;-191.596943615553357;-178.882041692933853;480.600000000000023
15.172057589256891;-192.462121660812414;-179.839039704907435;480.600000000000023
15.252760023242301;-193.319231280539071;-180.787934709832001;480.600000000000023
15.333462457227711;-194.167930298647860;-181.728370414301963;480.600000000000023
15.414164891213119;-195.007899715189438;-182.659985895044969;480.600000000000023
15.494867325198529;-195.838854221618618;-183.582415520986814;480.600000000000023
15.575569759183937;-196.660539151407647;-184.495288873152447;480.600000000000023
15.656272193169347;-197.472685258020761;-185.398230662357832;480.600000000000023
15.736974627154755;-198.274850471217690;-186.290860644632289;480.600000000000023
15.817677061140165;-199.066156001785600;-187.172793534320135;480.600000000000023
15.898379495125573;-199.845819854780302;-188.043638914798350;480.600000000000023
15.979081929110983;-200.616123568662800;-188.903001146754406;480.600000000000023
16.059784363096391;-201.379649623625852;-189.750479273955790;480.600000000000023
16.140486797081802;-201.956291348308980;-190.585666926453030;480.600000000000023
16.221189231067207;-202.856959519114184;-191.408152221137243;480.600000000000023
16.301891665052619;-203.569994999275934;-192.217517659596808;480.600000000000023
16.382594099038027;-204.274832296264776;-193.013340023179296;480.600000000000023
16.463296533023438;-204.967630114203786;-193.795190265204297;480.600000000000023
16.543998967008843;-205.645403871876994;-194.562633400231192;480.600000000000023
16.624701400994255;-206.308326206048775;-195.315228390306686;480.600000000000023
16.705403834979663;-206.956427063380517;-196.052528028105513;480.600000000000023
16.786106268965074;-207.589241123622116;-196.774078816875715;480.600000000000023
16.866808702950479;-208.206159754531541;-197.479420847097003;480.600000000000023
16.947511136935891;-208.806592001258252;-198.168087669751344;480.600000000000023
17.028213570921299;-209.390000926143841;-198.839606166113356;480.600000000000023
17.108916004906710;-209.955894789088944;-199.493496413954205;480.600000000000023
17.189618438892118;-210.503804491572907;-200.129271550048941;480.600000000000023
17.270320872877527;-211.033263174008965;-200.746437628879022;480.600000000000023
17.351023306862935;-211.543794029744760;-201.344493477414943;480.600000000000023
17.431725740848346;-212.034905747847006;-201.922930545853035;480.600000000000023
17.512428174833754;-212.506092486444913;-202.481232754187090;480.600000000000023
17.593130608819163;-212.956835557930106;-203.018876334485697;480.600000000000023
17.673833042804571;-213.386605212109345;-203.535329668729588;480.600000000000023
17.754535476789982;-213.794861929026098;-204.030053122082535;480.600000000000023
17.835237910775390;-214.181057182744382;-204.502498871439570;480.600000000000023
17.915940344760802;-214.544633819848912;-204.952110729105982;480.600000000000023
17.996642778746207;-214.885026198932792;-205.378323961445517;480.600000000000023
18.077345212731618;-215.201660188190601;-205.780565102335572;480.600000000000023
18.158047646717026;-215.493953074159208;-206.158251761259123;480.600000000000023
18.238750080702435;-215.761313408429970;-206.510792425853793;480.600000000000023
18.319452514687843;-216.003140807287735;-206.837586258729942;480.600000000000023
18.400154948673251;-216.218825714908206;-207.138022888374877;480.600000000000023
18.480857382658662;-216.407749139476920;-207.411482193932358;480.600000000000023
18.561559816644071;-216.569282370930836;-207.657334083651023;480.600000000000023
18.642262250629479;-216.702786688047780;-207.874938266790792;480.600000000000023
18.722964684614887;-216.807613061184753;-208.063644018751603;480.600000000000023
18.803667118600298;-216.883101855196230;-208.222789939192296;480.600000000000023
18.884369552585706;-216.928582535228685;-208.351703702896572;480.600000000000023
18.965071986571118;-216.943373376360796;-208.449701803123389;480.600000000000023
19.045774420556523;-216.926781176671255;-208.516089287180279;480.600000000000023
19.126476854541934;-216.878100972248944;-208.550159483937705;480.600000000000023
19.207179288527342;-216.796615752090673;-208.551193722994498;480.600000000000023
19.287881722512754;-216.681596170488405;-208.518461045190037;480.600000000000023
19.368584156498159;-216.532300254640461;-208.451217904149246;480.600000000000023
19.449286590483570;-216.347973105342049;-208.348707858525955;480.600000000000023
19.529989024468978;-216.127846589054002;-208.210161254606987;480.600000000000023
19.610691458454390;-215.871139019915773;-208.034794898904380;480.600000000000023
19.691393892439798;-215.577054830710580;-207.821811720374598;480.600000000000023
19.772096326425206;-215.244784232006054;-207.570400421861564;480.600000000000023
19.852798760410614;-214.873502858943766;-207.279735120350551;480.600000000000023
19.933501194396026;-214.462371405274723;-206.948974975615613;480.600000000000023
20.014203628381434;-214.010535244321886;-206.577263806801625;480.600000000000023
20.094906062366842;-213.517124036541475;-206.163729696468465;480.600000000000023
