Density;f;f0;u;P;u_0;P_0;T
0.000001000000000;0.000000000000000;0.000000000000000;0.000000000000000;0.000000000000000;0.000000000000000;0.000000000000000;13820935.953782783447423
27.641871907565569;-0.912523812349957;-0.909340268103100;-0.030252499420995;0.076288098471110;-0.030096630623184;0.077413059567729;13820935.953782783447423
55.283743815131139;-1.669620627353887;-1.660743411290595;-0.025803289335697;0.243118190131524;-0.025558133607756;0.247794100526507;13820935.953782783447423
82.925615722696705;-2.369805860332317;-2.353371735850472;-0.024694621185792;0.321989193461793;-0.024393014171881;0.330566016314767;13820935.953782783447423
110.567487630262278;-3.033792634993876;-3.008297115727289;-0.023473178082312;0.438422307734864;-0.023121160800938;0.451848454872230;13820935.953782783447423
138.209359537827851;-3.671346916968924;-3.635523250294174;-0.022670218902787;0.538110481832417;-0.022275528638455;0.556836703806790;13820935.953782783447423
165.851231445393410;-4.288225585466950;-4.240939093089151;-0.021990808854334;0.641022856495356;-0.021556591090303;0.665751914997669;13820935.953782783447423
193.493103352958997;-4.888239167783408;-4.828433361386370;-0.021437078553023;0.740312311737797;-0.020965834267282;0.771689024626172;13820935.953782783447423
221.134975260524556;-5.474085010383393;-5.400767829873417;-0.020963386179180;0.838347126273682;-0.020457444472503;0.876911352552953;13820935.953782783447423
248.776847168090114;-6.047757839593127;-5.960005683871335;-0.020553097700439;0.934622994140182;-0.020015063574323;0.980721271982464;13820935.953782783447423
276.418719075655702;-6.610783118457275;-6.507746806483498;-0.020191205386431;1.029555988946625;-0.019623836540675;1.083351046559978;13820935.953782783447423
304.060590983221232;-7.164360866362121;-7.045267921027296;-0.019868123852104;1.123247386163552;-0.019274186123750;1.184747497519346;13820935.953782783447423
331.702462890786819;-7.709458393245771;-7.573611326460534;-0.019576625453224;1.215843515320984;-0.018958761181953;1.284943549048320;13820935.953782783447423
359.344334798352406;-8.246872238600508;-8.093643842152757;-0.019311416075405;1.307424274969773;-0.018672056244104;1.383946211797912;13820935.953782783447423
386.986206705917994;-8.777270816465970;-8.606097507039953;-0.019068460349666;1.398039678026377;-0.018409771506097;1.481769865572820;13820935.953782783447423
414.628078613483524;-9.301224441883944;-9.111598591285247;-0.018844641500484;1.487706944378408;-0.018168504609607;1.578426433723592;13820935.953782783447423
442.269950521049111;-9.819226772335460;-9.610688837527787;-0.018637495494870;1.576422561983081;-0.017945511744649;1.673928246146764;13820935.953782783447423
469.911822428614698;-10.331710253568216;-10.103841371498218;-0.018445032147942;1.664171582174239;-0.017738549591089;1.768287205909301;13820935.953782783447423
497.553694336180229;-10.839057333508466;-10.591472856341802;-0.018265606548028;1.750937316245880;-0.017545760236899;1.861515030535795;13820935.953782783447423
525.195566243745816;-11.341608696386910;-11.073952937819801;-0.018097829557500;1.836708854152741;-0.017365587865762;1.953623185505160;13820935.953782783447423
552.837438151311403;-11.839669422127281;-11.551611695667024;-0.017940505811859;1.921486149960334;-0.017196716670857;2.044622906736702;13820935.953782783447423
580.479310058876990;-12.333513721772485;-12.024745600975379;-0.017792591505185;2.005282480683384;-0.017038023975749;2.134525198765932;13820935.953782783447423
608.121181966442464;-12.823388706148901;-12.493622336250171;-0.017653165781552;2.088124665621809;-0.016888544259277;2.223340839606262;13820935.953782783447423
635.763053874008051;-13.309517497449777;-12.958484737244442;-0.017521411146639;2.170051638680688;-0.016747441185562;2.311080384536188;13820935.953782783447423
663.404925781573638;-13.792101884378591;-13.419554047856105;-0.017396599578340;2.251112032258503;-0.016613985590779;2.397754170069385;13820935.953782783447423
691.046797689139225;-14.271324645115904;-13.877032631536597;-0.017278082083356;2.331361351202911;-0.016487537966745;2.483372317839512;13820935.953782783447423
718.688669596704813;-14.747351611988735;-14.331106248044716;-0.017165280275495;2.410859167538963;-0.016367534380912;2.567944739248595;13820935.953782783447423
746.330541504270400;-15.220333521284115;-14.781945979305458;-0.017057679154078;2.489666601414932;-0.016253475056309;2.651481139204465;13820935.953782783447423
773.972413411835987;-15.690407674700328;-15.229709869448190;-0.016954820650345;2.567844216987975;-0.016144915028394;2.733991020593386;13820935.953782783447423
801.614285319401461;-16.157699430587314;-15.674544330119232;-0.016856297747128;2.645450358892518;-0.016041456442287;2.815483688653126;13820935.953782783447423
829.256157226967048;-16.622323539618780;-16.116585351606179;-0.016761749096609;2.722539895362290;-0.015942742156548;2.895968255206935;13820935.953782783447423
856.898029134532635;-17.084385338247145;-16.555959552170275;-0.016670854110666;2.799163306828337;-0.015848450395943;2.975453643049958;13820935.953782783447423
884.539901042098222;-17.543981812829379;-16.992785091713838;-0.016583328510548;2.875366053160951;-0.015758290253303;3.053948590464783;13820935.953782783447423
912.181772949663809;-18.001202546886024;-17.427172470996254;-0.016498920317930;2.951188159521640;-0.015671997883948;3.131461655553236;13820935.953782783447423
939.823644857229397;-18.456130563340547;-17.859225233768626;-0.016417406259461;3.026663973472075;-0.015589333268254;3.208001220704377;13820935.953782783447423
967.465516764794870;-18.908843072686430;-18.289040586100953;-0.016338588549871;3.101822058078499;-0.015510077443465;3.283575497196621;13820935.953782783447423
995.107388672360457;-19.359412137031516;-18.716709944753010;-0.016262292015311;3.176685195847750;-0.015434030125731;3.358192529646642;13820935.953782783447423
1022.749260579926045;-19.807905258873095;-19.142319424444331;-0.016188361517909;3.251270486430869;-0.015361007657857;3.431860200608424;13820935.953782783447423
1050.391132487491632;-20.254385902431391;-19.565950272291715;-0.016116659645666;3.325589525305322;-0.015290841230944;3.504586235033720;13820935.953782783447423
1078.033004395057105;-20.698913954413623;-19.987679256366636;-0.016047064635138;3.399648654074351;-0.015223375336726;3.576378205082609;13820935.953782783447423
1105.674876302622806;-21.141546130258892;-20.407579014255656;-0.015979468500130;3.473449272996316;-0.015158466416241;3.647243534540539;13820935.953782783447423
1133.316748210188280;-21.582336331231343;-20.825718366637147;-0.015913775342747;3.546988208041551;-0.015095981675078;3.717189503597474;13820935.953782783447423
1160.958620117753981;-22.021335957123664;-21.242162600124701;-0.015849899828342;3.620258123407211;-0.015035798041401;3.786223253610569;13820935.953782783447423
1188.600492025319454;-22.458594178900160;-21.656973723056755;-0.015787765809230;3.693247970069439;-0.014977801246895;3.854351791540324;13820935.953782783447423
1216.242363932884928;-22.894158175191471;-22.070210697367759;-0.015727305083858;3.765943461706936;-0.014921885012907;3.921581994934890;13820935.953782783447423
1243.884235840450629;-23.328073336250476;-22.481929649260643;-0.015668456281728;3.838327567454257;-0.014867950328311;3.987920616615849;13820935.953782783447423
1271.526107748016102;-23.760383438717724;-22.892184061041885;-0.015611163865000;3.910381012037860;-0.014815904806766;4.053374289329980;13820935.953782783447423
1299.167979655581803;-24.191130794308133;-23.301024946163551;-0.015555377238728;3.982082774289218;-0.014765662112796;4.117949530805603;13820935.953782783447423
1326.809851563147276;-24.620356375328885;-23.708501009256011;-0.015501049963433;4.053410574273126;-0.014717141448678;4.181652748301371;13820935.953782783447423
1354.451723470712977;-25.048099919767203;-24.114658792727212;-0.015448139062737;4.124341341827474;-0.014670267093892;4.244490243629741;13820935.953782783447423
1382.093595378278451;-25.474400018477841;-24.519542811280004;-0.015396604420217;4.194851658723046;-0.014624967991220;4.306468218001910;13820935.953782783447423
1409.735467285843924;-25.899294186868378;-24.923195675577695;-0.015346408259153;4.264918168492393;-0.014581177373872;4.367592776843789;13820935.953782783447423
1437.377339193409625;-26.322818923266524;-25.325658206101629;-0.015297514698793;4.334517949243711;-0.014538832428675;4.427869934793460;13820935.953782783447423
1465.019211100975099;-26.745009756018078;-25.726969538160375;-0.015249889381062;4.403628845597044;-0.014497873991387;4.487305620657015;13820935.953782783447423
1492.661083008540800;-27.165901281159549;-26.127167218869825;-0.015203499161446;4.472229757316374;-0.014458246270521;4.545905682309492;13820935.953782783447423
1520.302954916106273;-27.585527192368861;-26.526287296865057;-0.015158311857741;4.540300883505051;-0.014419896596506;4.603675891612408;13820935.953782783447423
1547.944826823671974;-28.003920304689682;-26.924364405386289;-0.015114296050338;4.607823922487160;-0.014382775193273;4.660621949590858;13820935.953782783447423
1575.586698731237448;-28.421112573388033;-27.321431839344609;-0.015071420928298;4.674782227782782;-0.014346834970249;4.716749491328759;13820935.953782783447423
1603.228570638802921;-28.837135109110019;-27.717521626885649;-0.015029656175015;4.741160922447467;-0.014312031332280;4.772064091097267;13820935.953782783447423
1630.870442546368622;-29.252018190368279;-28.112664595933172;-0.014988971888124;4.806946973868410;-0.014278322005946;4.826571267275874;13820935.953782783447423
1658.512314453934096;-29.665791274219178;-28.506890436131933;-0.014949338527951;4.872129232672268;-0.014245666880243;4.880276487639765;13820935.953782783447423
1686.154186361499796;-30.078483005858143;-28.900227756574324;-0.014910726890004;4.936698438585729;-0.014214027860625;4.933185174322336;13820935.953782783447423
1713.796058269065270;-30.490121227730917;-29.292704139659595;-0.014873108096618;5.000647197537624;-0.014183368734817;4.985302708953618;13820935.953782783447423
1741.437930176630744;-30.900732988629493;-29.684346191391882;-0.014836453603683;5.063969933870077;-0.014153655049292;5.036634437919123;13820935.953782783447423
1769.079802084196444;-31.310344553142986;-30.075179588403149;-0.014800735218947;5.126662821307132;-0.014124853995602;5.087185677394608;13820935.953782783447423
1796.721673991761918;-31.718981411733807;-30.465229121956931;-0.014765925128462;5.188723696886207;-0.014096934305454;5.136961718510204;13820935.953782783447423
1824.363545899327619;-32.126668291624512;-30.854518739162746;-0.014731995928342;5.250151961619355;-0.014069866153672;5.185967832719985;13820935.953782783447423
1852.005417806893092;-32.533429168610112;-31.243071581611414;-0.014698920659710;5.310948470913218;-0.014043621068617;5.234209276905244;13820935.953782783447423
1879.647289714458793;-32.939287279856913;-31.630910021628747;-0.014666672844668;5.371115418248632;-0.014018171849176;5.281691298573307;13820935.953782783447423
1907.289161622024267;-33.344265137688247;-32.018055696316310;-0.014635226521638;5.430656215084859;-0.013993492487715;5.328419141258454;13820935.953782783447423
1934.931033529589740;-33.748384544327941;-32.404529539543063;-0.014604556279086;5.489575368995617;-0.013969558098723;5.374398049628930;13820935.953782783447423
1962.572905437155441;-34.151666607538914;-32.790351812034430;-0.014574637286382;5.547878362711490;-0.013946344852396;5.419633274839907;13820935.953782783447423
1990.214777344720915;-34.554131757067303;-33.175542129688836;-0.014545445321202;5.605571535751416;-0.013923829912805;5.464130079989257;13820935.953782783447423
2017.856649252286616;-34.955799761793962;-33.560119490247629;-0.014516956793265;5.662661969597000;-0.013901991380540;5.507893745177228;13820935.953782783447423
2045.498521159852089;-35.356689747484786;-33.944102298433229;-0.014489148763740;5.719157378389990;-0.013880808239033;5.550929572988018;13820935.953782783447423
2073.140393067417790;-35.756820215016411;-34.327508389651314;-0.014461998960462;5.775066005582850;-0.013860260304510;5.593242893942204;13820935.953782783447423
2100.782264974983264;-36.156209058969040;-34.710355052360313;-0.014435485789108;5.830396526912086;-0.013840328179386;5.634839071671724;13820935.953782783447423
2128.424136882548737;-36.554873586468766;-35.092659049192221;-0.014409588340201;5.885157960644548;-0.013820993208578;5.675723508364115;13820935.953782783447423
2156.066008790114211;-36.952830536170907;-35.474436636905807;-0.014384286392286;5.939359585061453;-0.013802237438607;5.715901650274645;13820935.953782783447423
2183.707880697680139;-37.350096097281209;-35.855703585245465;-0.014359560411641;5.993010863025326;-0.013784043579387;5.755378993057253;13820935.953782783447423
2211.349752605245612;-37.746685928525082;-36.236475194779295;-0.014335391548739;6.046121373721807;-0.013766394968411;5.794161087117445;13820935.953782783447423
2238.991624512811086;-38.142615176975667;-36.616766313775500;-0.014311761631722;6.098700751526003;-0.013749275537062;5.832253543174421;13820935.953782783447423
2266.633496420376559;-38.537898496666756;-36.996591354178008;-0.014288653157357;6.150758631469003;-0.013732669779042;5.869662037720886;13820935.953782783447423
2294.275368327942033;-38.932550066923611;-37.375964306735888;-0.014266049279791;6.202304600946199;-0.013716562720753;5.906392318387521;13820935.953782783447423
2321.917240235507961;-39.326583610356515;-37.754898755339255;-0.014243933797341;6.253348157536195;-0.013700939893378;5.942450209475510;13820935.953782783447423
2349.559112143073435;-39.720012410464307;-38.133407890604801;-0.014222291137658;6.303898672428311;-0.013685787306614;5.977841617498612;13820935.953782783447423
2377.200984050638908;-40.112849328811187;-38.511504522758862;-0.014201106341631;6.353965358878312;-0.013671091423985;6.012572536614393;13820935.953782783447423
2404.842855958204382;-40.505106821742018;-38.889201093856393;-0.014180365046200;6.403557245508942;-0.013656839139543;6.046649054155132;13820935.953782783447423
2432.484727865769855;-40.896796956611013;-39.266509689375255;-0.014160053466313;6.452683154041928;-0.013643017755885;6.080077356183288;13820935.953782783447423
2460.126599773335784;-41.287931427502116;-39.643442049219402;-0.014140158376297;6.501351680965982;-0.013629614963419;6.112863733044222;13820935.953782783447423
2487.768471680901257;-41.678521570429503;-40.020009578166373;-0.014120667090833;6.549571182753247;-0.013616618820828;6.145014584812671;13820935.953782783447423
2515.410343588466731;-42.068578378006634;-40.396223355788621;-0.014101567445577;6.597349764590781;-0.013604017736532;6.176536426955685;13820935.953782783447423
2543.052215496032204;-42.458112513578008;-40.772094145876515;-0.014082847777708;6.644695271983913;-0.013591800451194;6.207435895886881;13820935.953782783447423
2570.694087403598132;-42.847134324813496;-41.147632405392251;-0.014064496906485;6.691615285006193;-0.013579956021222;6.237719754435226;13820935.953782783447423
2598.335959311163606;-43.235653856765254;-41.522848292978509;-0.014046504113806;6.738117115250439;-0.013568473803043;6.267394897561338;13820935.953782783447423
2625.977831218729079;-43.623680864389343;-41.897751677044333;-0.014028859124997;6.784207804857296;-0.013557343438280;6.296468357903407;13820935.953782783447423
2653.619703126294553;-44.011224824540648;-42.272352143453219;-0.014011552089838;6.829894127564970;-0.013546554839710;6.324947311317771;13820935.953782783447423
2681.261575033860026;-44.398294947445549;-42.646659002831555;-0.013994573563823;6.875182591782178;-0.013536098177894;6.352839082559790;13820935.953782783447423
2708.903446941425955;-44.784900187661968;-43.020681297518102;-0.013977914489789;6.920079445219805;-0.013525963868531;6.380151150848313;13820935.953782783447423
2736.545318848991428;-45.171049254536236;-43.394427808172495;-0.013961566179880;6.964590681186564;-0.013516142560438;6.406891155509797;13820935.953782783447423
2764.187190756556902;-45.556750622166334;-43.767907060059734;-0.013945520297886;7.008722046312940;-0.013506625124122;6.433066901610715;13820935.953782783447423
2791.829062664122375;-45.942012538883084;-44.141127329027213;-0.013929768842023;7.052479049531080;-0.013497402640957;6.458686365523413;13820935.953782783447423
2819.470934571687849;-46.326843036260193;-44.514096647189582;-0.013914304128044;7.095866972449549;-0.013488466392839;6.483757700633198;13820935.953782783447423
2847.112806479253777;-46.711249937663354;-44.886822808334415;-0.013899118772823;7.138890880783300;-0.013479807852377;6.508289242953389;13820935.953782783447423
2874.754678386819251;-47.095240866351880;-45.259313373064323;-0.013884205678345;7.181555636843974;-0.013471418673566;6.532289516723431;13820935.953782783447423
2902.396550294384724;-47.478823253142572;-45.631575673686271;-0.013869558016071;7.223865913188874;-0.013463290682863;6.555767240134934;13820935.953782783447423
2930.038422201950198;-47.862004343647826;-46.003616818860912;-0.013855169211775;7.265826207036298;-0.013455415870733;6.578731330906749;13820935.953782783447423
2957.680294109515671;-48.244791205100249;-46.375443698023624;-0.013841032930746;7.307440855712699;-0.013447786383562;6.601190911967961;13820935.953782783447423
2985.322166017081599;-48.627190732773201;-46.747062985586865;-0.013827143063407;7.348714052893882;-0.013440394515953;6.623155317098707;13820935.953782783447423
3012.964037924647073;-49.009209656010313;-47.118481144935082;-0.013813493711345;7.389649865630716;-0.013433232703374;6.644634096595574;13820935.953782783447423
3040.605909832212546;-49.390854543873125;-47.489704432220464;-0.013800079173700;7.430252252167342;-0.013426293515142;6.665637022937318;13820935.953782783447423
3068.247781739778020;-49.772131810419104;-47.860738899969888;-0.013786893933995;7.470525080358165;-0.013419569647740;6.686174096388697;13820935.953782783447423
3095.889653647343948;-50.153047719619892;-48.231590400510711;-0.013773932647293;7.510472146831219;-0.013413053918406;6.706255550704391;13820935.953782783447423
3123.531525554909422;-50.533608389930251;-48.602264589223523;-0.013761190127759;7.550097196721303;-0.013406739259023;6.725891858771348;13820935.953782783447423
3151.173397462474895;-50.913819798518212;-48.972766927629962;-0.013748661336587;7.589403943944710;-0.013400618710283;6.745093738248208;13820935.953782783447423
3178.815269370040369;-51.293687785166576;-49.343102686322510;-0.013736341370288;7.628396092016622;-0.013394685416096;6.763872157229564;13820935.953782783447423
3206.457141277605842;-51.673218055855571;-49.713276947743196;-0.013724225449344;7.667077355304095;-0.013388932618244;6.782238339889290;13820935.953782783447423
3234.099013185171771;-52.052416186037085;-50.083294608817894;-0.013712308907215;7.705451480722708;-0.013383353651274;6.800203772125649;13820935.953782783447423
3261.740885092737244;-52.431287623609506;-50.453160383452172;-0.013700587179698;7.743522269810128;-0.013377941937592;6.817780207212707;13820935.953782783447423
3289.382757000302718;-52.809837691603633;-50.822878804894820;-0.013689055794635;7.781293601116147;-0.013372690982785;6.834979671428748;13820935.953782783447423
3317.024628907868191;-53.188071590588649;-51.192454227974544;-0.013677710361975;7.818769452848322;-0.013367594371127;6.851814469697359;13820935.953782783447423
3344.666500815433665;-53.565994400808400;-51.561890831215109;-0.013666546564167;7.855953925805572;-0.013362645761276;6.868297191211276;13820935.953782783447423
3372.308372722999593;-53.943611084056272;-51.931192618834125;-0.013655560146892;7.892851266470153;-0.013357838882149;6.884440715076799;13820935.953782783447423
3399.950244630565066;-54.320926485299445;-52.300363422629985;-0.013644746910163;7.929465890169041;-0.013353167528974;6.900258215902987;13820935.953782783447423
3427.592116538130540;-54.697945334060918;-52.669406903762244;-0.013634102699711;7.965802404459609;-0.013348625559490;6.915763169435337;13820935.953782783447423
