Density;f;f0;T
0.000100000000000;-0.047786986851530;0.000000000000000;0.047786986851530
0.012646925972396;-3.182387885725636;-219.285688693365074;0.409098014014666
0.025193851944793;-5.532998188987400;-169.281918361797239;1.268134600849748
0.037740777917189;-7.583209323181726;-155.833566024478671;1.701929315808195
0.050287703889586;-9.439693396893894;-141.483982752382644;2.324788767122789
0.062834629861982;-11.153182272461020;-131.819571029350442;2.870348318266482
0.075381555834379;-12.753577983819300;-123.595461441363341;3.436759806301341
0.087928481806775;-14.260652366127664;-116.802112636185299;3.990419930203911
0.100475407779172;-15.688466472488635;-110.934943043283653;4.542232833255500
0.113022333751568;-17.047537698110851;-105.809061577323888;5.088750626578300
0.125569259723965;-18.346030247748828;-101.258663610662893;5.631054817519908
0.138116185696361;-19.590464716824670;-97.176214353802536;6.168856649865463
0.150663111668758;-20.786167958234255;-93.479239978802141;6.702294786597372
0.163210037641154;-21.937572391044732;-90.105882627574246;7.231387895708902
0.175756963613551;-23.048422996702918;-87.007818314646272;7.756193039081191
0.188303889585947;-24.121925086155848;-84.146796354431018;8.276756036419876
0.200850815558344;-25.160852615766444;-81.491969055446859;8.793124169524628
0.213397741530740;-26.167629389753813;-79.018117741957823;9.305341523609894
0.225944667503137;-27.144391126393963;-76.704360555766797;9.813449884580510
0.238491593475533;-28.093033705520533;-74.533215622553655;10.317488344842200
0.251038519447930;-29.015251236121888;-72.489902461220595;10.817493447332229
0.263585445420326;-29.912566491588116;-70.561814227720120;11.313499258708195
0.276132371392723;-30.786355532265578;-68.738112588574978;11.805537498122401
0.288679297365119;-31.637867838527260;-67.009412707902314;12.293637661160730
0.301226223337516;-32.468242932036468;-65.367535298022815;12.777827145331305
0.313773149309912;-33.278524218142664;-63.805309314680869;13.258131371782170
0.326320075282309;-34.069670606147277;-62.316413375006718;13.734573902291615
0.338867001254705;-34.842566335533760;-60.895247115602849;14.207176554805187
0.351413927227102;-35.598029340807813;-59.536825962194108;14.675959514796713
0.363960853199498;-36.336818416437517;-58.236694372162262;15.140941445226925
0.376507779171895;-37.059639388849291;-56.990853780446812;15.602139598863086
0.389054705144291;-37.767150461297213;-55.795702390122834;16.059569919589354
0.401601631116688;-38.459966865358396;-54.647984508867417;16.513247149357763
0.414148557089084;-39.138664927170751;-53.544747688651746;16.963184932216560
0.426695483061481;-39.803785637514402;-52.483306261841861;17.409395919454159
0.439242409033877;-40.455837798618113;-51.461210218873916;17.851891850281159
0.451789335006274;-41.095300808863982;-50.476218376001668;18.290683675138741
0.464336260978670;-41.722627134093813;-49.526275312949707;18.725781635078533
0.476883186951067;-42.338244510745369;-48.609491400149537;19.157195335771593
0.489430112923463;-42.942557913488066;-47.724125323280695;19.584933867341292
0.501977038895860;-43.535951319145830;-46.868568940894455;20.009005864909181
0.514523964868256;-44.118789292469607;-46.041334024979108;20.429419562113615
0.527070890840653;-44.691418415125817;-45.241040357457955;20.846182971362541
0.539617816813049;-45.254168574946512;-44.466405704428638;21.259303807199423
0.552164742785445;-45.807354138684353;-43.716236556670886;21.668789624822484
0.564711668757842;-46.351275009933580;-42.989419882014161;22.074647969429815
0.577258594730238;-46.886217596466025;-42.284916259193807;22.476886258397997
0.589805520702635;-47.412455691272569;-41.601753297745098;22.875511925353461
0.602352446675031;-47.930251276355925;-40.939019720992611;23.270532582938664
0.614899372647428;-48.439855258526229;-40.295860885565325;23.661955679704082
0.627446298619824;-48.941508149812080;-39.671473119476609;24.049789180200623
0.639993224592221;-49.435440677267934;-39.065100726209728;24.434040894481058
0.652540150564617;-49.921874370580738;-38.476031440544403;24.814719021238940
0.665087076537014;-50.401022070423863;-37.903593343393744;25.191831983418297
0.677634002509410;-50.873088433347860;-37.347151969067248;25.565388362221611
0.690180928481807;-51.338270365473846;-36.806107109871562;25.935397186581859
0.702727854454203;-51.796757455385510;-36.279891275365578;26.301867299616084
0.715274780426600;-52.248732351681745;-35.767965627353256;26.664808591270475
0.727821706398996;-52.694371120712979;-35.269819810755337;27.024230681663905
0.740368632371393;-53.133843592291946;-34.784969081663903;27.380143606219256
0.752915558343789;-53.567313659111363;-34.312952020124236;27.732558230455872
0.765462484316186;-53.994939575112952;-33.853331231425578;28.081484548327207
0.778009410288582;-54.416874239166170;-33.405689064937810;28.426933789470162
0.790556336260979;-54.833265425729977;-32.969627848507336;28.768917225926081
0.803103262233375;-55.244256045296545;-32.544767676487105;29.107446955682448
0.815650188205772;-55.649984338945941;-32.130746389930948;29.442534998806842
0.828197114178168;-56.050584132533061;-31.727220371776092;29.774191779733311
0.840744040150565;-56.446185013927661;-31.333857245945033;30.102431279470785
0.853290966122961;-56.836912485052565;-30.950339861749512;30.427267082586326
0.865837892095358;-57.222888186655553;-30.576369022153091;30.748709284584727
0.878384818067754;-57.604230070873250;-30.211653494058325;31.066772312968798
0.890931744040151;-57.981052481936523;-29.855912792251516;31.381472028025236
0.903478670012547;-58.353466371772051;-29.508886323747998;31.692817002440766
0.916025595984944;-58.721579472549450;-29.170315986047509;32.000823386361148
0.928572521957340;-59.085496287948963;-28.839952990994458;32.305508405970102
0.941119447929737;-59.445318352465861;-28.517568714955182;32.606879827148909
0.953666373902133;-59.801144338953684;-28.202932276014753;32.904956181879257
0.966213299874530;-60.153070068639423;-27.895829769360269;33.199748334447698
0.978760225846926;-60.501188773308051;-27.596046723654322;33.491275849581825
0.991307151819323;-60.845590972045713;-27.303387174504888;33.779547997067056
1.003854077791719;-61.186364901232139;-27.017655037480093;34.064581719487762
1.016401003764116;-61.523596185671948;-26.738660380284760;34.346394935842731
1.028947929736512;-61.857368356521995;-26.466233986491012;34.624991688199955
1.041494855708909;-62.187762633515085;-26.200189390902363;34.900400164291156
1.054041781681305;-62.514858051196342;-25.940366520116513;35.172627906866659
1.066588707653702;-62.838731701933249;-25.686605270021932;35.441688582969796
1.079135633626098;-63.159458602115365;-25.438745379863981;35.707601987962875
1.091682559598494;-63.477111880401701;-25.196640264599647;35.970379143061066
1.104229485570891;-63.791762830644934;-24.960146457686601;36.230033147899562
1.116776411543287;-64.103480923273381;-24.729109718630809;36.486594511040636
1.129323337515684;-64.412333798278652;-24.503416829033771;36.740053324376262
1.141870263488080;-64.718387773631633;-24.282921142874137;36.990442209957664
1.154417189460477;-65.021707025157824;-24.067494172235275;37.237778045489570
1.166964115432873;-65.322354660058494;-23.857028812113608;37.482058135473764
1.179511041405270;-65.620392000601100;-23.651399677888815;37.723304935842201
1.192057967377666;-65.915879059239472;-23.450475451532874;37.961552958445331
1.204604893350063;-66.208874057434642;-23.254165379548095;38.196792650459386
1.217151819322459;-66.499434455081754;-23.062353471068846;38.429048969912671
1.229698745294856;-66.787615689196613;-22.874928675543359;38.658344598171624
1.242245671267252;-67.073472566472716;-22.691816799186519;38.884661374493746
1.254792597239649;-67.357058234978851;-22.512878374986109;39.108065107489708
1.267339523212045;-67.638424606344856;-22.338053248133054;39.328526853370633
1.279886449184442;-67.917622768074409;-22.167228818831546;39.546086986881079
1.292433375156838;-68.194702142700677;-22.000320492107921;39.760753674553484
1.304980301129235;-68.469711658833575;-21.837263050990487;39.972513546713699
1.317527227101631;-68.742698676617934;-21.677908836360373;40.181463558086094
1.330074153074028;-69.013709355931894;-21.522251691277152;40.387518665410369
1.342621079046424;-69.282789881349998;-21.370182820951914;40.590731962864183
1.355168005018821;-69.549984089908392;-21.221588164407283;40.791166793817553
1.367714930991217;-69.815335701810042;-21.076443523205462;40.988769202928793
1.380261856963614;-70.078887291929547;-20.934657966231303;41.183577412561021
1.392808782936010;-70.340680526406814;-20.796128284994218;41.375650400002883
1.405355708908407;-70.600755886650504;-20.660857691860524;41.564901578450147
1.417902634880803;-70.859154196346907;-20.528735113181597;41.751406588596652
1.430449560853200;-71.115913637879444;-20.399651928753578;41.935240494835760
1.442996486825596;-71.371072780920073;-20.273614752824042;42.116317917339401
1.455543412797993;-71.624669100502842;-20.150536619680388;42.294688259382326
1.468090338770389;-71.876739298248410;-20.030312122393212;42.470431588807529
1.480637264742786;-72.127318892158627;-19.912981923315165;42.643415804348720
1.493184190715182;-72.376444386131865;-19.798441504093606;42.813724531419979
1.505731116687579;-72.624148987815417;-19.686515864487006;42.981549471493665
1.518278042659975;-72.870466417757768;-19.577344018201604;43.146614861321666
1.530824968632372;-73.115431054503489;-19.470824874992736;43.309006175996331
1.543371894604768;-73.359074631981656;-19.366748776681970;43.468978880179435
1.555918820577165;-73.601428061728186;-19.265226476168955;43.626299604775426
1.568465746549561;-73.842524031735664;-19.166252738899729;43.780913121059733
1.581012672521958;-74.082392961017092;-19.069619986783927;43.933082101733703
1.593559598494354;-74.321063747944322;-18.975257659358231;44.082859770970501
1.606106524466751;-74.558565575593008;-18.883360060991425;44.229877777779819
1.618653450439147;-74.794929448183368;-18.793724048051374;44.374403171203838
1.631200376411543;-75.030181387233696;-18.706211954773888;44.516601405372413
1.643747302383940;-75.264349813665831;-18.620959915027910;44.656197185539227
1.656294228356336;-75.497461875665934;-18.537830448083113;44.793360298257511
1.668841154328733;-75.729544197698914;-18.456807805844949;44.928063753769059
1.681388080301129;-75.960622892230646;-18.377844818224602;45.060333673243925
1.693935006273526;-76.190723571094523;-18.300903791055507;45.190181992981721
1.706481932245922;-76.419871356515728;-18.225945902175358;45.317623976361872
1.719028858218319;-76.648090891806532;-18.152932558684135;45.442675962137599
1.731575784190715;-76.875406351743976;-18.081830417227849;45.565346667429139
1.744122710163112;-77.101841452642304;-18.012589796677819;45.685674519404174
1.756669636135508;-77.327419462130976;-17.945225863747289;45.803586073692514
1.769216562107905;-77.552163208649191;-17.879515339665460;45.919428547250718
1.781763488080301;-77.776093646201005;-17.815782979436865;46.032582021877914
1.794310414052698;-77.999237085640075;-17.753785695437212;46.143434523457273
1.806857340025094;-78.221610758717972;-17.693281083689577;46.252375963526305
1.819404265997491;-78.443237271195983;-17.634595951280868;46.358778168293490
1.831951191969887;-78.664137388738808;-17.577510440921319;46.462996184629858
1.844498117942284;-78.884331489372030;-17.522044517749190;46.564953353882736
1.857045043914680;-79.103839571253488;-17.468154665773579;46.664689522843567
1.869591969887077;-79.322681260231747;-17.415815136497823;46.762213131997612
1.882138895859473;-79.540875817198511;-17.364996157803965;46.857541122145356
1.894685821831870;-79.758442145242114;-17.315669752960400;46.950688168785092
1.907232747804266;-79.975398796608843;-17.267808162198115;47.041669586862795
1.919779673776663;-80.191763979478495;-17.221384247032301;47.130500547728268
1.932326599749059;-80.407555564560028;-17.176371363966052;47.217196290800395
1.944873525721456;-80.622791091513974;-17.132743380917567;47.301772066987894
1.957420451693852;-80.837487775205915;-17.090474655990811;47.384243154414051
1.969967377666249;-81.051662511798298;-17.049540026921370;47.464624854548262
1.982514303638645;-81.265331884684343;-17.009914798111598;47.542932493753440
1.995061229611042;-81.478512170269681;-16.971574728879435;47.619181423235794
2.007608155583438;-81.691219343606804;-16.934496021829236;47.693387019487140
2.020155081555834;-81.903469083886321;-16.898655311684461;47.765564684526467
2.032702007528231;-82.115276779790591;-16.864029654445709;47.835729846183177
2.045248933500627;-82.326657534712822;-16.830596516853618;47.903897958438584
2.057795859473024;-82.537626171846654;-16.798333766239342;47.970084501633451
2.070342785445420;-82.748197239150102;-16.767219660654945;48.034304982734525
2.082889711417817;-82.958385014187556;-16.737232839303068;48.096574935598781
2.095436637390214;-83.168203508853651;-16.708352313282941;48.156909921177046
2.107983563362610;-83.377666473982700;-16.680557456577827;48.215325527791016
2.120530489335007;-83.586787403846827;-16.653827997375611;48.271837371270884
2.133077415307403;-83.795579540547052;-16.628144009591029;48.326461095209339
2.145624341279800;-84.004055878298971;-16.603485904667163;48.379212371149052
2.158171267252196;-84.212229167618091;-16.579834423646105;48.430106898706192
2.170718193224593;-84.420111919406139;-16.557170629414731;48.479160405811704
2.183265119196989;-84.627716408942248;-16.535475899229525;48.526388648831961
2.195812045169386;-84.835054679781436;-16.514731917462139;48.571807412674765
2.208358971141782;-85.042138547563496;-16.494920668504705;48.615432510999128
2.220905897114179;-85.248979603733915;-16.476024429946964;48.657279786267431
2.233452823086575;-85.455589219181093;-16.458025765916297;48.697365109863746
2.245999749058972;-85.661978547790156;-16.440907520585277;48.735704382253864
2.258546675031368;-85.868158529917650;-16.424652811940181;48.772313532965548
2.271093601003765;-86.074139895788292;-16.409245025646360;48.807208520739991
2.283640526976161;-86.279933168816243;-16.394667809135026;48.840405333564028
2.296187452948558;-86.485548668853198;-16.380905065845891;48.871919988716400
2.308734378920954;-86.690996515365185;-16.367940949623886;48.901768532820434
2.321281304893350;-86.896286630540160;-16.355759859298487;48.929967041825485
2.333828230865747;-87.101428742328451;-16.344346433367310;48.956531621085944
2.346375156838143;-87.306432387417345;-16.333685544878573;48.981478405307968
2.358922082810540;-87.511306914142750;-16.323762296426338;49.004823558552573
2.371469008782936;-87.716061485338287;-16.314562015280625;49.026583274232998
2.384015934755333;-87.920705081124851;-16.306070248677472;49.046773775037906
2.396562860727729;-88.125246501641200;-16.298272759193836;49.065411312946800
2.409109786700126;-88.329694369717828;-16.291155520296098;49.082512169118715
2.421656712672522;-88.534057133495523;-16.284704711985846;49.098092653825141
2.434203638644919;-88.738343068989920;-16.278906716528631;49.112169106454715
2.446750564617315;-88.942560282603381;-16.273748114385469;49.124757895290763
2.459297490589712;-89.146716713586642;-16.269215680154268;49.135875417520460
2.471844416562108;-89.350820136449485;-16.265296378673128;49.145538099098438
2.484391342534505;-89.554878163324403;-16.261977361237570;49.153762394573675
2.496938268506901;-89.758898246282044;-16.259245961859268;49.160564787049339
2.509485194479298;-89.962887679601494;-16.257089693686677;49.165961787972797
2.522032120451694;-90.166853601995399;-16.255496245467068;49.169969937045536
2.534579046424091;-90.370802998791902;-16.254453478153252;49.172605801989491
2.547125972396487;-90.574742704074083;-16.253949421529121;49.173885978478403
2.559672898368884;-90.778679402777740;-16.253972270978625;49.173827089914418
2.572219824341280;-90.982619632749405;-16.254510384314649;49.172445787254063
2.584766750313677;-91.186569786764636;-16.255552278690431;49.169758748819888
2.597313676286073;-91.390536114508507;-16.257086627586247;49.165782680111313
2.609860602258470;-91.594524724518152;-16.259102257840730;49.160534313687897
2.622407528230866;-91.798541586089314;-16.261588146859967;49.154030408773920
2.634954454203263;-92.002592531147755;-16.264533419740165;49.146287751265589
2.647501380175659;-92.206683256084787;-16.267927346588717;49.137323153393808
2.660048306148056;-92.410819323560716;-16.271759339865429;49.127153453502878
2.672595232120452;-92.615006164273581;-16.276018951726716;49.115795515986640
2.685142158092849;-92.819249078696828;-16.280695871582246;49.103266230823145
2.697689084065245;-93.023553238785453;-16.285779923556689;49.089582513517655
2.710236010037641;-93.227923689650865;-16.291261064067612;49.074761304890679
2.722782936010038;-93.432365351206187;-16.297129379505851;49.058819570739800
2.735329861982434;-93.636883019782417;-16.303375083899706;49.041774301691177
2.747876787954831;-93.841481369715510;-16.309988516656809;49.023642512984424
2.760423713927227;-94.046164954905905;-16.316960140391977;49.004441244162550
2.772970639899624;-94.250938210350668;-16.324280538737849;48.984187558945798
2.785517565872020;-94.455805453648551;-16.331940414250589;48.962898544978373
2.798064491844417;-94.660770886479426;-16.339930586373708;48.940591313544637
2.810611417816813;-94.865838596057927;-16.348241989383734;48.917282999463751
2.823158343789210;-95.071012556561897;-16.356865670452230;48.892990760785395
2.835705269761606;-95.276296630536876;-16.365792787698826;48.867731778632823
2.848252195734003;-95.481694570276062;-16.375014608323706;48.841523256941691
2.860799121706399;-95.687210019177598;-16.384522506740311;48.814382422316186
2.873346047678796;-95.892846513077771;-16.394307962729673;48.786326523939451
2.885892973651192;-96.098607481562667;-16.404362559779958;48.757372833067002
2.898439899623589;-96.304496249258136;-16.414677983237709;48.727538643169098
2.910986825595985;-96.510516037096480;-16.425246018609066;48.696841269752582
2.923533751568382;-96.716669963563774;-16.436058550010156;48.665298049855011
2.936080677540778;-96.922961045926129;-16.447107558397398;48.632926342280641
2.948627603513175;-97.129392201434356;-16.458385119995555;48.599743527364971
2.961174529485571;-97.335966248510218;-16.469883404790345;48.565767006647953
2.973721455457968;-97.542685907912514;-16.481594674904628;48.531014202986839
2.986268381430364;-97.749553803883686;-16.493511283121201;48.495502560333890
2.998815307402761;-97.956572465278143;-16.505625671387271;48.459249543662025
3.011362233375157;-98.163744326671619;-16.517930369368013;48.422272638836226
3.023909159347554;-98.371071729452893;-16.530417992975021;48.384589352652121
3.036456085319950;-98.578556922896709;-16.543081242986837;48.346217212687009
3.049003011292347;-98.786202065220550;-16.555912903683097;48.307173767196971
3.061549937264743;-98.994009224623014;-16.568905841427213;48.267476585256098
3.074096863237139;-99.201980380305699;-16.582053003359842;48.227143256645221
3.086643789209536;-99.410117423478411;-16.595347416111682;48.186191391762769
3.099190715181932;-99.618422158348380;-16.608782184447179;48.144638621830588
3.111737641154329;-99.826896303092255;-16.622350490036137;48.102502598786700
3.124284567126725;-100.035541490813884;-16.636045590207562;48.059800995311782
3.136831493099122;-100.244359270484978;-16.649860816670355;48.016551505036347
3.149378419071518;-100.453351107871384;-16.663789574343689;47.972771842484406
3.161925345043915;-100.662518386443736;-16.677825340136806;47.928479743249511
3.174472271016312;-100.871862408273643;-16.691961661813266;47.883692963980074
3.187019196988708;-101.081384394915133;-16.706192156762697;47.838429282730225
3.199566122961105;-101.291085488270909;-16.720510510890335;47.792706499011118
3.212113048933501;-101.500966751445603;-16.734910477557971;47.746542433747670
3.224659974905898;-101.711029169584592;-16.749385876362332;47.699954929824834
3.237206900878294;-101.921273650697970;-16.763930592079397;47.652961852173796
