Density;f;f0;u;P;u_0;P_0;T;rhoc;6088;;;;
0.000001;-6.31903E-08;-6.31903E-08;-0.058925147;4.26514E-09;-0.058925147;4.26514E-09;513.0075;uc;0.029179373;;1;-1.64258E-10;1.105061791
20.36245164;0.174285307;0.174506405;0.012803848;0.086432418;0.012819379;0.086527589;513.0075;;;;0.996655313;-0.003350293;-0.577674196
40.72490328;0.467977053;0.468651278;0.015706147;0.171654257;0.015734831;0.172148211;513.0075;;;;0.993310627;-0.006711847;-0.772757604
61.08735492;0.806104862;0.807481921;0.017387977;0.256080687;0.017428015;0.257149398;513.0075;;;;0.98996594;-0.01008474;-0.906092003
81.44980656;1.172771239;1.175067731;0.018567505;0.339548471;0.01861768;0.341338711;513.0075;;;;0.986621254;-0.013469048;-1.011489109
101.8122582;1.560427331;1.563843686;0.019472789;0.4221413;0.019532502;0.424804435;513.0075;;;;0.983276567;-0.016864848;-1.10065768
122.1747098;1.964629998;1.969354822;0.020204471;0.503845336;0.020273211;0.507518847;513.0075;;;;0.979931881;-0.020272219;-1.179030033
142.5371615;2.382444687;2.388658057;0.02081647;0.58467579;0.020893879;0.589496209;513.0075;;;;0.976587194;-0.02369124;-1.249656423
162.8996131;2.811786868;2.819662133;0.021340911;0.664639225;0.021426685;0.670736585;513.0075;;;;0.973242508;-0.027121991;-1.314419417
183.2620648;3.251099194;3.260803869;0.021798545;0.743747136;0.021892411;0.751244602;513.0075;;;;0.969897821;-0.030564552;-1.37457625
203.6245164;3.699174086;3.710870316;0.022203537;0.822010467;0.02230524;0.831023437;513.0075;;;;0.966553135;-0.034019006;-1.431009979
223.986968;4.155047967;4.168892842;0.022565992;0.899440268;0.02267529;0.910076686;513.0075;;;;0.963208448;-0.037485434;-1.484367162
244.3494197;4.617934242;4.634080061;0.022893368;0.976046909;0.023010032;0.9884078;513.0075;;;;0.959863762;-0.04096392;-1.535136359
264.7118713;5.08717876;5.105773281;0.023191324;1.0518401;0.023315137;1.06602025;513.0075;;;;0.956519075;-0.044454548;-1.583696523
285.0743229;5.562229055;5.583415739;0.02346426;1.126828861;0.023595016;1.14291748;513.0075;;;;0.953174388;-0.047957403;-1.630347981
305.4367746;6.042612431;6.066530681;0.023715658;1.201021603;0.023853164;1.219102921;513.0075;;;;0.949829702;-0.051472572;-1.675333133
325.7992262;6.527919912;6.554705297;0.023948326;1.274426194;0.0240924;1.294579988;513.0075;;;;0.946485015;-0.05500014;-1.718850696
346.1616779;7.017794228;7.047578704;0.024164559;1.347050031;0.024315028;1.369352079;513.0075;;;;0.943140329;-0.058540196;-1.761065785
366.5241295;7.511920644;7.544832751;0.024366256;1.418900094;0.024522957;1.443422579;513.0075;;;;0.939795642;-0.062092829;-1.80211722
386.8865811;8.010019831;8.046184883;0.024555007;1.489982999;0.024717786;1.516794855;513.0075;;;;0.936450956;-0.065658128;-1.842122929
407.2490328;8.511842245;8.551382511;0.024732158;1.560305037;0.024900869;1.58947226;513.0075;;;;0.933106269;-0.069236184;-1.881184009
427.6114844;9.017163638;9.060198505;0.024898854;1.629872206;0.02507336;1.661458132;513.0075;;;;0.929761583;-0.072827088;-1.919387845
447.9739361;9.525781424;9.572427548;0.025056082;1.698690248;0.025236252;1.732755795;513.0075;;;;0.926416896;-0.076430934;-1.956810521
468.3363877;10.03751171;10.08788316;0.025204696;1.766764673;0.025390407;1.803368557;513.0075;;;;0.92307221;-0.080047814;-1.993518729
488.6988393;10.55218685;10.60639525;0.025345441;1.834100787;0.025536576;1.873299714;513.0075;;;;0.919727523;-0.083677823;-2.029571273
509.061291;11.06965338;11.12780802;0.025478969;1.900703712;0.025675416;1.942552543;513.0075;;;;0.916382837;-0.087321058;-2.065020294
529.4237426;11.58977036;11.65197832;0.025605857;1.966578416;0.02580751;2.011130314;513.0075;;;;0.91303815;-0.090977614;-2.099912254
549.7861943;12.11240785;12.1787741;0.025726615;2.031729724;0.025933373;2.079036274;513.0075;;;;0.909693463;-0.09464759;-2.134288749
570.1486459;12.63744574;12.70807325;0.025841696;2.096162347;0.026053463;2.146273666;513.0075;;;;0.906348777;-0.098331083;-2.168187178
590.5110975;13.16477267;13.2397625;0.025951508;2.159880891;0.026168193;2.212845713;513.0075;;;;0.90300409;-0.102028196;-2.201641303
610.8735492;13.69428511;13.77373649;0.026056415;2.22288988;0.02627793;2.278755629;513.0075;;;;0.899659404;-0.105739027;-2.23468171
631.2360008;14.22588661;14.30989702;0.026156747;2.285193765;0.026383007;2.344006611;513.0075;;;;0.896314717;-0.109463681;-2.267336211
651.5984525;14.75948707;14.84815231;0.0262528;2.346796933;0.026483725;2.408601836;513.0075;;;;0.892970031;-0.113202259;-2.299630168
671.9609041;15.29500216;15.38841643;0.026344845;2.407703746;0.026580357;2.472544492;513.0075;;;;0.889625344;-0.116954866;-2.331586797
692.3233557;15.83235281;15.93060875;0.026433127;2.467918501;0.026673153;2.535837719;513.0075;;;;0.886280658;-0.120721609;-2.363227386
712.6858074;16.3714647;16.47465348;0.026517871;2.527445498;0.026762338;2.598484678;513.0075;;;;0.882935971;-0.124502594;-2.394571536
733.048259;16.91226791;17.02047927;0.026599281;2.586289028;0.02684812;2.660488524;513.0075;;;;0.879591285;-0.128297929;-2.42563733
753.4107106;17.45469652;17.56801878;0.026677547;2.644453293;0.026930691;2.721852319;513.0075;;;;0.876246598;-0.132107723;-2.456441453
773.7731623;17.99868828;18.11720845;0.026752842;2.701942622;0.027010226;2.782579249;513.0075;;;;0.872901912;-0.135932087;-2.486999433
794.1356139;18.54418433;18.6679881;0.026825324;2.758761203;0.027086885;2.842672336;513.0075;;;;0.869557225;-0.139771134;-2.517325623
814.4980656;19.09112894;19.22030075;0.026895143;2.814913325;0.02716082;2.902134697;513.0075;;;;0.866212539;-0.143624975;-2.547433432
834.8605172;19.63946929;19.77409232;0.026962435;2.870403301;0.027232168;2.960969446;513.0075;;;;0.862867852;-0.147493726;-2.577335376
855.2229688;20.18915522;20.32931146;0.027027327;2.925235425;0.027301057;3.019179655;513.0075;;;;0.859523165;-0.151377502;-2.607043138
875.5854205;20.74013907;20.88590935;0.027089936;2.979413848;0.027367607;3.07676821;513.0075;;;;0.856178479;-0.155276421;-2.636567567
895.9478721;21.2923755;21.44383948;0.027150373;3.032943083;0.027431928;3.133738363;513.0075;;;;0.852833792;-0.159190601;-2.665919026
916.3103238;21.84582132;22.00305756;0.027208739;3.085827408;0.027494125;3.190093073;513.0075;;;;0.849489106;-0.163120162;-2.695107119
936.6727754;22.40043537;22.5635213;0.027265131;3.138071003;0.027554293;3.245835166;513.0075;;;;0.846144419;-0.167065226;-2.724140816
957.035227;22.95617837;23.12519034;0.027319639;3.189678577;0.027612524;3.300968002;513.0075;;;;0.842799733;-0.171025914;-2.753028847
977.3976787;23.51301281;23.6880261;0.027372346;3.240654345;0.027668902;3.355494374;513.0075;;;;0.839455046;-0.175002352;-2.781779184
997.7601303;24.07090282;24.25199166;0.02742333;3.291002705;0.027723506;3.409417234;513.0075;;;;0.83611036;-0.178994665;-2.810399444
1018.122582;24.62981409;24.81705167;0.027472667;3.340728232;0.027776411;3.462739699;513.0075;;;;0.832765673;-0.183002981;-2.838896927
1038.485034;25.1897138;25.38317226;0.027520425;3.389835361;0.027827687;3.515464692;513.0075;;;;0.829420987;-0.187027428;-2.86727847
1058.847485;25.75057046;25.95032094;0.02756667;3.438328346;0.027877401;3.567594896;513.0075;;;;0.8260763;-0.191068137;-2.895550444
1079.209937;26.3123539;26.51846653;0.027611463;3.486211738;0.027925614;3.619133301;513.0075;;;;0.822731614;-0.195125239;-2.923719053
1099.572389;26.87503518;27.08757908;0.027654865;3.533490891;0.027972386;3.670083761;513.0075;;;;0.819386927;-0.199198868;-2.951790682
1119.93484;27.43858653;27.65762982;0.027696929;3.58016935;0.028017771;3.720448053;513.0075;;;;0.81604224;-0.20328916;-2.979770357
1140.297292;28.00298122;28.22859104;0.027737707;3.626251417;0.028061822;3.770228789;513.0075;;;;0.812697554;-0.207396251;-3.007663259
1160.659743;28.5681936;28.80043611;0.027777251;3.671743536;0.028104591;3.819430966;513.0075;;;;0.809352867;-0.21152028;-3.035475646
1181.022195;29.13419901;29.37313938;0.027815606;3.716648644;0.028146122;3.868055594;513.0075;;;;0.806008181;-0.215661387;-3.063211414
1201.384647;29.70097368;29.94667611;0.027852815;3.760971098;0.028186461;3.916105211;513.0075;;;;0.802663494;-0.219819714;-3.090875073
1221.747098;30.26849475;30.52102247;0.027888923;3.804716404;0.02822565;3.963583701;513.0075;;;;0.799318808;-0.223995404;-3.118471664
1242.10955;30.83674019;31.09615547;0.027923971;3.8478905;0.028263732;4.010495412;513.0075;;;;0.795974121;-0.228188605;-3.146006342
1262.472002;31.4056888;31.67205293;0.027957994;3.890495495;0.028300741;4.056840244;513.0075;;;;0.792629435;-0.232399462;-3.17348165
1282.834453;31.97532008;32.24869339;0.027991029;3.932536739;0.028336716;4.102621815;513.0075;;;;0.789284748;-0.236628126;-3.200901979
1303.196905;32.5456143;32.82605616;0.028023113;3.97402008;0.028371691;4.147844287;513.0075;;;;0.785940062;-0.240874747;-3.228271959
1323.559357;33.11655241;33.40412121;0.028054278;4.014949377;0.028405701;4.192509536;513.0075;;;;0.782595375;-0.245139479;-3.255594748
1343.921808;33.68811603;33.98286922;0.028084555;4.055329791;0.028438775;4.236620895;513.0075;;;;0.779250689;-0.249422477;-3.282874251
1364.28426;34.26028738;34.56228145;0.028113975;4.095166647;0.028470946;4.280181939;513.0075;;;;0.775906002;-0.253723898;-3.310114356
1384.646711;34.83304933;35.14233979;0.028142567;4.134462978;0.02850224;4.323193399;513.0075;;;;0.772561315;-0.258043901;-3.337317283
1405.009163;35.40638523;35.72302665;0.028170355;4.173221186;0.028532684;4.365655363;513.0075;;;;0.769216629;-0.262382647;-3.364484584
1425.371615;35.98027906;36.30432502;0.028197371;4.211453728;0.028562309;4.407579816;513.0075;;;;0.765871942;-0.2667403;-3.39162485
1445.734066;36.55471537;36.88621852;0.028223639;4.249160655;0.028591138;4.448963956;513.0075;;;;0.762527256;-0.271117026;-3.418737922
1466.096518;37.12967907;37.46869109;0.028249177;4.286341333;0.02861919;4.489804094;513.0075;;;;0.759182569;-0.275512991;-3.445822779
1486.45897;37.70515564;38.05172722;0.028274018;4.323011585;0.028646498;4.53011631;513.0075;;;;0.755837883;-0.279928367;-3.472890382
1506.821421;38.28113109;38.635312;0.028298178;4.359169138;0.028673077;4.569894947;513.0075;;;;0.752493196;-0.284363324;-3.499938486
1527.183873;38.8575917;39.21943071;0.028321677;4.394816681;0.028698948;4.609140297;513.0075;;;;0.74914851;-0.288818038;-3.526968157
1547.546325;39.43452436;39.80406929;0.028344544;4.429971225;0.028724141;4.647870077;513.0075;;;;0.745803823;-0.293292685;-3.553991507
1567.908776;40.0119163;40.38921402;0.028366787;4.464618639;0.028748661;4.686063914;513.0075;;;;0.742459137;-0.297787445;-3.580996652
1588.271228;40.58975497;40.97485134;0.028388432;4.498774217;0.028772535;4.723737536;513.0075;;;;0.73911445;-0.302302498;-3.607994089
1608.633679;41.16802852;41.56096848;0.0284095;4.532449682;0.028795786;4.760902305;513.0075;;;;0.735769764;-0.30683803;-3.634992111
1628.996131;41.74672525;42.14755276;0.028430001;4.565636533;0.028818422;4.797544677;513.0075;;;;0.732425077;-0.311394227;-3.661982547
1649.358583;42.32583386;42.7345919;0.028449957;4.59834654;0.028840465;4.833676052;513.0075;;;;0.72908039;-0.315971278;-3.688973456
1669.721034;42.90534339;43.32207397;0.028469382;4.630582447;0.028861929;4.869296768;513.0075;;;;0.725735704;-0.320569375;-3.715965583
1690.083486;43.48524319;43.90998737;0.028488292;4.662349397;0.028882832;4.904410155;513.0075;;;;0.722391017;-0.325188711;-3.742961593
1710.445938;44.06552295;44.4983208;0.028506703;4.693651939;0.028903187;4.939018723;513.0075;;;;0.719046331;-0.329829485;-3.769963628
1730.808389;44.64617263;45.08706326;0.028524629;4.724494748;0.02892301;4.973125196;513.0075;;;;0.715701644;-0.334491897;-3.796973905
1751.170841;45.22718251;45.67620406;0.028542084;4.754882439;0.028942314;5.00673223;513.0075;;;;0.712356958;-0.339176148;-3.823994561
1771.533293;45.80854313;46.26573277;0.028559081;4.784819619;0.028961113;5.039842493;513.0075;;;;0.709012271;-0.343882445;-3.851027705
1791.895744;46.39024531;46.85563923;0.028575634;4.81431088;0.028979419;5.07245864;513.0075;;;;0.705667585;-0.348610996;-3.878075409
1812.258196;46.97228011;47.44591356;0.028591754;4.843360797;0.028997246;5.104583322;513.0075;;;;0.702322898;-0.353362012;-3.905139711
1832.620648;47.55463888;48.0365461;0.028607455;4.871973926;0.029014606;5.136219182;513.0075;;;;0.698978212;-0.358135708;-3.93222262
1852.983099;48.13731318;48.62752747;0.028622748;4.900154808;0.029031509;5.167368859;513.0075;;;;0.695633525;-0.362932302;-3.959326111
1873.345551;48.72029483;49.2188485;0.028637644;4.927907962;0.029047969;5.198034983;513.0075;;;;0.692288839;-0.367752014;-3.986452135
1893.708002;49.30357584;49.81050026;0.028652154;4.955237889;0.029063995;5.228220179;513.0075;;;;0.688944152;-0.372595068;-4.013602611
1914.070454;49.88714849;50.40247403;0.028666289;4.982149068;0.029079599;5.257927067;513.0075;;;;0.685599465;-0.377461691;-4.040779436
1934.432906;50.47100523;50.99476131;0.02868006;5.008645957;0.02909479;5.28715826;513.0075;;;;0.682254779;-0.382352115;-4.067984477
1954.795357;51.05513874;51.58735382;0.028693475;5.034732992;0.029109579;5.315916365;513.0075;;;;0.678910092;-0.387266572;-4.095219582
1975.157809;51.63954188;52.18024344;0.028706545;5.060414588;0.029123975;5.344203984;513.0075;;;;0.675565406;-0.3922053;-4.122486573
1995.520261;52.22420772;52.7734223;0.028719279;5.085695135;0.029137988;5.372023713;513.0075;;;;0.672220719;-0.397168541;-4.149787252
2015.882712;52.80912952;53.36688266;0.028731686;5.110579;0.029151627;5.399378141;513.0075;;;;0.668876033;-0.402156538;-4.177123399
2036.245164;53.39430069;53.960617;0.028743774;5.135070527;0.0291649;5.426269854;513.0075;;;;0.665531346;-0.40716954;-4.204496774
2056.607616;53.97971484;54.55461797;0.028755553;5.159174035;0.029177816;5.452701431;513.0075;;;;0.66218666;-0.412207799;-4.231909119
2076.970067;54.56536574;55.14887839;0.02876703;5.182893817;0.029190384;5.478675445;513.0075;;;;0.658841973;-0.417271571;-4.259362156
2097.332519;55.15124734;55.74339123;0.028778213;5.206234144;0.029202611;5.504194466;513.0075;;;;0.655497287;-0.422361115;-4.286857589
2117.69497;55.73735373;56.33814964;0.02878911;5.229199259;0.029214505;5.529261055;513.0075;;;;0.6521526;-0.427476695;-4.314397106
2138.057422;56.32367916;56.93314692;0.028799728;5.251793379;0.029226074;5.553877772;513.0075;;;;0.648807914;-0.432618579;-4.341982377
2158.419874;56.91021804;57.52837652;0.028810075;5.274020697;0.029237325;5.57804717;513.0075;;;;0.645463227;-0.437787038;-4.369615056
2178.782325;57.49696489;58.12383205;0.028820158;5.295885378;0.029248265;5.601771796;513.0075;;;;0.642118541;-0.44298235;-4.397296782
2199.144777;58.08391442;58.71950724;0.028829983;5.317391561;0.029258902;5.625054193;513.0075;;;;0.638773854;-0.448204793;-4.425029178
2219.507229;58.67106145;59.31539598;0.028839557;5.338543357;0.029269241;5.647896901;513.0075;;;;0.635429167;-0.453454654;-4.45281385
2239.86968;59.25840092;59.91149229;0.028848886;5.359344853;0.02927929;5.670302452;513.0075;;;;0.632084481;-0.458732221;-4.480652394
2260.232132;59.84592794;60.50779032;0.028857978;5.379800106;0.029289055;5.692273376;513.0075;;;;0.628739794;-0.464037789;-4.508546386
2280.594584;60.43363769;61.10428435;0.028866836;5.399913148;0.029298542;5.713812196;513.0075;;;;0.625395108;-0.469371656;-4.536497391
2300.957035;61.02152552;61.70096877;0.028875469;5.419687982;0.029307757;5.734921432;513.0075;;;;0.622050421;-0.474734126;-4.564506961
2321.319487;61.60958688;62.29783812;0.028883881;5.439128585;0.029316706;5.7556036;513.0075;;;;0.618705735;-0.480125507;-4.59257663
2341.681939;62.19781732;62.89488704;0.028892078;5.458238906;0.029325395;5.775861211;513.0075;;;;0.615361048;-0.485546113;-4.620707922
2362.04439;62.78621252;63.49211028;0.028900065;5.477022867;0.029333829;5.79569677;513.0075;;;;0.612016362;-0.490996262;-4.648902345
2382.406842;63.37476826;64.08950271;0.028907847;5.495484363;0.029342014;5.81511278;513.0075;;;;0.608671675;-0.496476278;-4.677161396
2402.769293;63.96348044;64.68705931;0.02891543;5.513627261;0.029349955;5.83411174;513.0075;;;;0.605326989;-0.50198649;-4.705486556
2423.131745;64.55234504;65.28477517;0.028922819;5.531455401;0.029357657;5.852696142;513.0075;;;;0.601982302;-0.507527233;-4.733879293
2443.494197;65.14135815;65.88264548;0.028930018;5.548972596;0.029365126;5.870868479;513.0075;;;;0.598637616;-0.513098846;-4.762341063
2463.856648;65.73051596;66.48066552;0.028937032;5.566182631;0.029372365;5.888631234;513.0075;;;;0.595292929;-0.518701677;-4.790873308
2484.2191;66.31981475;67.07883068;0.028943866;5.583089266;0.02937938;5.905986891;513.0075;;;;0.591948242;-0.524336076;-4.819477455
2504.581552;66.9092509;67.67713645;0.028950524;5.599696233;0.029386176;5.922937927;513.0075;;;;0.588603556;-0.530002402;-4.848154918
2524.944003;67.49882086;68.2755784;0.02895701;5.616007236;0.029392757;5.939486818;513.0075;;;;0.585258869;-0.535701018;-4.876907099
2545.306455;68.08852118;68.8741522;0.028963329;5.632025955;0.029399127;5.955636035;513.0075;;;;0.581914183;-0.541432294;-4.905735384
2565.668907;68.67834851;69.47285361;0.028969484;5.647756042;0.029405291;5.971388044;513.0075;;;;0.578569496;-0.547196608;-4.934641147
2586.031358;69.26829954;70.07167847;0.02897548;5.663201124;0.029411253;5.986745309;513.0075;;;;0.57522481;-0.552994341;-4.963625746
2606.39381;69.85837108;70.67062272;0.028981321;5.678364799;0.029417018;6.001710291;513.0075;;;;0.571880123;-0.558825884;-4.992690528
2626.756261;70.44856001;71.26968236;0.02898701;5.693250643;0.029422588;6.016285447;513.0075;;;;0.568535437;-0.564691634;-5.021836822
2647.118713;71.03886327;71.86885349;0.028992551;5.707862204;0.029427969;6.03047323;513.0075;;;;0.56519075;-0.570591994;-5.051065945
2667.481165;71.62927788;72.46813228;0.028997948;5.722203005;0.029433163;6.044276091;513.0075;;;;0.561846064;-0.576527375;-5.080379199
2687.843616;72.21980095;73.06751498;0.029003204;5.736276545;0.029438175;6.057696476;513.0075;;;;0.558501377;-0.582498195;-5.109777871
2708.206068;72.81042964;73.66699791;0.029008323;5.750086296;0.029443009;6.070736831;513.0075;;;;0.555156691;-0.58850488;-5.139263234
2728.56852;73.40116118;74.26657747;0.029013307;5.763635707;0.029447667;6.083399596;513.0075;;;;0.551812004;-0.594547863;-5.168836544
2748.930971;73.99199288;74.86625013;0.029018161;5.776928201;0.029452154;6.095687208;513.0075;;;;0.548467317;-0.600627586;-5.198499044
2769.293423;74.58292211;75.46601244;0.029022887;5.789967179;0.029456472;6.107602104;513.0075;;;;0.545122631;-0.606744499;-5.228251961
2789.655875;75.17394629;76.06586099;0.029027488;5.802756014;0.029460626;6.119146715;513.0075;;;;0.541777944;-0.612899058;-5.258096505
2810.018326;75.76506292;76.66579247;0.029031968;5.81529806;0.029464618;6.130323471;513.0075;;;;0.538433258;-0.619091731;-5.288033874
2830.380778;76.35626956;77.26580363;0.029036329;5.827596644;0.029468451;6.141134798;513.0075;;;;0.535088571;-0.625322992;-5.318065245
2850.743229;76.94756381;77.86589125;0.029040574;5.839655069;0.02947213;6.151583122;513.0075;;;;0.531743885;-0.631593325;-5.348191785
2871.105681;77.53894335;78.46605223;0.029044706;5.851476619;0.029475656;6.161670863;513.0075;;;;0.528399198;-0.637903224;-5.37841464
2891.468133;78.1304059;79.06628348;0.029048728;5.863064551;0.029479033;6.17140044;513.0075;;;;0.525054512;-0.64425319;-5.408734943
2911.830584;78.72194924;79.66658199;0.029052642;5.8744221;0.029482263;6.18077427;513.0075;;;;0.521709825;-0.650643736;-5.439153809
2932.193036;79.31357122;80.26694483;0.029056451;5.88555248;0.029485351;6.189794768;513.0075;;;;0.518365139;-0.657075384;-5.469672338
2952.555488;79.90526971;80.86736909;0.029060158;5.896458882;0.029488297;6.198464345;513.0075;;;;0.515020452;-0.663548666;-5.500291614
2972.917939;80.49704266;81.46785194;0.029063765;5.907144474;0.029491106;6.20678541;513.0075;;;;0.511675766;-0.670064125;-5.531012704
2993.280391;81.08888805;82.0683906;0.029067274;5.917612404;0.029493779;6.214760372;513.0075;;;;0.508331079;-0.676622313;-5.561836659
3013.642843;81.68080392;82.66898234;0.029070688;5.927865794;0.02949632;6.222391636;513.0075;;;;0.504986392;-0.683223796;-5.592764514
3034.005294;82.27278836;83.2696245;0.029074009;5.93790775;0.029498731;6.229681604;513.0075;;;;0.501641706;-0.689869147;-5.623797287
