Density;f;f0;u;P;T
0.000000000036177;-0.000000000000083;-0.000000000000083;1.798156817102829
0.001000000000000;-0.014253002942711;-0.014234320917042;1.798156817102829
0.002000000000000;-0.026062835149204;-0.026005623010422;1.798156817102829
0.003000000000000;-0.036983476918447;-0.036865623696963;1.798156817102829
0.004000000000000;-0.047338608093043;-0.047144022313315;1.798156817102829
0.005000000000000;-0.057283268310651;-0.056997315722406;1.798156817102829
0.006000000000000;-0.066908488080385;-0.066517610886229;1.798156817102829
0.007000000000000;-0.076274306095846;-0.075765714326158;1.798156817102829
0.008000000000000;-0.085423264899481;-0.084784798086503;1.798156817102829
0.009000000000000;-0.094387015782073;-0.093607102928995;1.798156817102829
0.010000000000000;-0.103189976079960;-0.102257620281588;1.798156817102829
0.011000000000000;-0.111851526879916;-0.110756285289798;1.798156817102829
0.012000000000000;-0.120387409831257;-0.119119365411855;1.798156817102829
0.013000000000000;-0.128810653507978;-0.127360382826817;1.798156817102829
0.014000000000000;-0.137132210147669;-0.135490751321329;1.798156817102829
0.015000000000000;-0.145361407342288;-0.143520230281427;1.798156817102829
0.016000000000000;-0.153506277489061;-0.151457257087014;1.798156817102829
0.017000000000000;-0.161573803951742;-0.159309196088467;1.798156817102829
0.018000000000000;-0.169570108842075;-0.167082528801854;1.798156817102829
0.019000000000000;-0.177500598836454;-0.174783001709739;1.798156817102829
0.020000000000000;-0.185370080155134;-0.182415742860746;1.798156817102829
0.021000000000000;-0.193182850440715;-0.189985355090258;1.798156817102829
0.022000000000000;-0.200942773039645;-0.197495991443327;1.798156817102829
0.023000000000000;-0.208653337680877;-0.204951416854440;1.798156817102829
0.024000000000000;-0.216317710501699;-0.212355059077589;1.798156817102829
0.025000000000000;-0.223938775635320;-0.219710051111327;1.798156817102829
0.026000000000000;-0.231519170044544;-0.227019266822047;1.798156817102829
0.027000000000000;-0.239061312900330;-0.234285351076130;1.798156817102829
0.028000000000000;-0.246567430517160;-0.241510745399321;1.798156817102829
0.029000000000000;-0.254039577641801;-0.248697709962941;1.798156817102829
0.030000000000000;-0.261479655728708;-0.255848342531241;1.798156817102829
0.031000000000000;-0.268889428709311;-0.262964594876906;1.798156817102829
0.032000000000000;-0.276270536664855;-0.270048287073528;1.798156817102829
0.033000000000000;-0.283624507735841;-0.277101119997051;1.798156817102829
0.034000000000000;-0.290952768540852;-0.284124686307964;1.798156817102829
0.035000000000000;-0.298256653329100;-0.291120480137661;1.798156817102829
0.036000000000000;-0.305537412052614;-0.298089905664377;1.798156817102829
0.037000000000000;-0.312796217512618;-0.305034284732963;1.798156817102829
0.038000000000000;-0.320034171709296;-0.311954863647865;1.798156817102829
0.039000000000000;-0.327252311503363;-0.318852819248110;1.798156817102829
0.040000000000000;-0.334451613680772;-0.325729264356383;1.798156817102829
0.041000000000000;-0.341632999497988;-0.332585252680600;1.798156817102829
0.042000000000000;-0.348797338773413;-0.339421783234557;1.798156817102829
0.043000000000000;-0.355945453581213;-0.346239804335166;1.798156817102829
0.044000000000000;-0.363078121595563;-0.353040217225390;1.798156817102829
0.045000000000000;-0.370196079126760;-0.359823879365424;1.798156817102829
0.046000000000000;-0.377300023885030;-0.366591607429066;1.798156817102829
0.047000000000000;-0.384390617503112;-0.373344180037276;1.798156817102829
0.048000000000000;-0.391468487844606;-0.380082340256854;1.798156817102829
0.049000000000000;-0.398534231121758;-0.386806797888841;1.798156817102829
0.050000000000000;-0.405588413843149;-0.393518231567887;1.798156817102829
0.051000000000000;-0.412631574609399;-0.400217290691730;1.798156817102829
0.052000000000000;-0.419664225772506;-0.406904597197204;1.798156817102829
0.053000000000000;-0.426686854972634;-0.413580747197748;1.798156817102829
0.054000000000000;-0.433699926564271;-0.420246312495266;1.798156817102829
0.055000000000000;-0.440703882942291;-0.426901841978196;1.798156817102829
0.056000000000000;-0.447699145776969;-0.433547862915913;1.798156817102829
0.057000000000000;-0.454686117165936;-0.440184882158870;1.798156817102829
0.058000000000000;-0.461665180709988;-0.446813387252651;1.798156817102829
0.059000000000000;-0.468636702518793;-0.453433847473420;1.798156817102829
0.060000000000000;-0.475601032151777;-0.460046714791374;1.798156817102829
0.061000000000000;-0.482558503498820;-0.466652424768198;1.798156817102829
0.062000000000000;-0.489509435604857;-0.473251397393976;1.798156817102829
0.063000000000000;-0.496454133442011;-0.479844037868361;1.798156817102829
0.064000000000000;-0.503392888632512;-0.486430737330485;1.798156817102829
0.065000000000000;-0.510325980125374;-0.493011873541590;1.798156817102829
0.066000000000000;-0.517253674829512;-0.499587811524004;1.798156817102829
0.067000000000000;-0.524176228205877;-0.506158904159747;1.798156817102829
0.068000000000000;-0.531093884820968;-0.512725492751839;1.798156817102829
0.069000000000000;-0.538006878864062;-0.519287907550977;1.798156817102829
0.070000000000000;-0.544915434630380;-0.525846468250124;1.798156817102829
0.071000000000000;-0.551819766972430;-0.532401484449305;1.798156817102829
0.072000000000000;-0.558720081721691;-0.538953256092667;1.798156817102829
0.073000000000000;-0.565616576082873;-0.545502073879754;1.798156817102829
0.074000000000000;-0.572509439002918;-0.552048219652779;1.798156817102829
0.075000000000000;-0.579398851516985;-0.558591966761444;1.798156817102829
0.076000000000000;-0.586284987073592;-0.565133580406875;1.798156817102829
0.077000000000000;-0.593168011841112;-0.571673317965997;1.798156817102829
0.078000000000000;-0.600048084997756;-0.578211429297642;1.798156817102829
0.079000000000000;-0.606925359007089;-0.584748157031521;1.798156817102829
0.080000000000000;-0.613799979881004;-0.591283736841198;1.798156817102829
0.081000000000000;-0.620672087431903;-0.597818397702007;1.798156817102829
0.082000000000000;-0.627541815515592;-0.604352362134878;1.798156817102829
0.083000000000000;-0.634409292266155;-0.610885846436901;1.798156817102829
0.084000000000000;-0.641274640323736;-0.617419060899454;1.798156817102829
0.085000000000000;-0.648137977055851;-0.623952210014599;1.798156817102829
0.086000000000000;-0.654999414772546;-0.630485492670463;1.798156817102829
0.087000000000000;-0.661859060935402;-0.637019102336227;1.798156817102829
0.088000000000000;-0.668717018360157;-0.643553227237321;1.798156817102829
0.089000000000000;-0.675573385412489;-0.650088050521382;1.798156817102829
0.090000000000000;-0.682428256196404;-0.656623750415489;1.798156817102829
0.091000000000000;-0.689281720734550;-0.663160500375162;1.798156817102829
0.092000000000000;-0.696133865139811;-0.669698469225575;1.798156817102829
0.093000000000000;-0.702984771777547;-0.676237821295396;1.798156817102829
0.094000000000000;-0.709834519417995;-0.682778716543671;1.798156817102829
0.095000000000000;-0.716683183378481;-0.689321310680090;1.798156817102829
0.096000000000000;-0.723530835655360;-0.695865755279014;1.798156817102829
0.097000000000000;-0.730377545045859;-0.702412197887560;1.798156817102829
0.098000000000000;-0.737223377260348;-0.708960782128074;1.798156817102829
0.099000000000000;-0.744068395025884;-0.715511647795250;1.798156817102829
0.100000000000000;-0.750912658182253;-0.722064930948195;1.798156817102829
0.101000000000000;-0.757756223771953;-0.728620763997671;1.798156817102829
0.102000000000000;-0.764599146125793;-0.735179275788752;1.798156817102829
0.103000000000000;-0.771441476945705;-0.741740591679142;1.798156817102829
0.104000000000000;-0.778283265386235;-0.748304833613336;1.798156817102829
0.105000000000000;-0.785124558135706;-0.754872120192845;1.798156817102829
0.106000000000000;-0.791965399497505;-0.761442566742666;1.798156817102829
0.107000000000000;-0.798805831471342;-0.768016285374162;1.798156817102829
0.108000000000000;-0.805645893833966;-0.774593385044552;1.798156817102829
0.109000000000000;-0.812485624218919;-0.781173971613121;1.798156817102829
0.110000000000000;-0.819325058195821;-0.787758147894356;1.798156817102829
0.111000000000000;-0.826164229351211;-0.794346013708096;1.798156817102829
0.112000000000000;-0.833003169374921;-0.800937665926868;1.798156817102829
0.113000000000000;-0.839841908157931;-0.807533198520519;1.798156817102829
0.114000000000000;-0.846680473910305;-0.814132702598268;1.798156817102829
0.115000000000000;-0.853518893313841;-0.820736266448289;1.798156817102829
0.116000000000000;-0.860357191741581;-0.827343975574943;1.798156817102829
0.117000000000000;-0.867195393634566;-0.833955912733748;1.798156817102829
0.118000000000000;-0.874033523386042;-0.840572157964194;1.798156817102829
0.119000000000000;-0.880871610429083;-0.847192788620496;1.798156817102829
0.120000000000000;-0.887710749626418;-0.853817879400365;1.798156817102829
0.121000000000000;-0.894550005489530;-0.860447502371889;1.798156817102829
0.122000000000000;-0.901389095541481;-0.867081726998602;1.798156817102829
0.123000000000000;-0.908228015299237;-0.873720620162818;1.798156817102829
0.124000000000000;-0.915066781448689;-0.880364246187289;1.798156817102829
0.125000000000000;-0.921905429932402;-0.887012666855282;1.798156817102829
0.126000000000000;-0.928744468955222;-0.893665941429121;1.798156817102829
0.127000000000000;-0.935584342797403;-0.900324126667247;1.798156817102829
0.128000000000000;-0.942424363793544;-0.906987276839904;1.798156817102829
0.129000000000000;-0.949264293039823;-0.913655443743432;1.798156817102829
0.130000000000000;-0.956104042726199;-0.920328676713307;1.798156817102829
0.131000000000000;-0.962943573050957;-0.927007022635899;1.798156817102829
0.132000000000000;-0.969782876723737;-0.933690525959065;1.798156817102829
0.133000000000000;-0.976621956567755;-0.940379228701583;1.798156817102829
0.134000000000000;-0.983460825441734;-0.947073170461482;1.798156817102829
0.135000000000000;-0.990299503478929;-0.953772388423329;1.798156817102829
0.136000000000000;-0.997138015412827;-0.960476917364485;1.798156817102829
0.137000000000000;-1.003976389385357;-0.967186789660406;1.798156817102829
0.138000000000000;-1.010814657342211;-0.973902035288976;1.798156817102829
0.139000000000000;-1.017652868535222;-0.980622681833981;1.798156817102829
0.140000000000000;-1.024492010573368;-0.987348754487689;1.798156817102829
0.141000000000000;-1.031331573797976;-0.994080276052610;1.798156817102829
0.142000000000000;-1.038171003068211;-1.000817266942451;1.798156817102829
0.143000000000000;-1.045010258583517;-1.007559745182328;1.798156817102829
0.144000000000000;-1.051849339351234;-1.014307726408211;1.798156817102829
0.145000000000000;-1.058688264407301;-1.021061223865684;1.798156817102829
0.146000000000000;-1.065527203502411;-1.027820248408012;1.798156817102829
0.147000000000000;-1.072367173332052;-1.034584808493566;1.798156817102829
0.148000000000000;-1.079207337936211;-1.041354910182616;1.798156817102829
0.149000000000000;-1.086047464759465;-1.048130557133519;1.798156817102829
0.150000000000000;-1.092887484494493;-1.054911750598340;1.798156817102829
0.151000000000000;-1.099727342878542;-1.061698489417909;1.798156817102829
0.152000000000000;-1.106567013182524;-1.068490770016337;1.798156817102829
0.153000000000000;-1.113406466969039;-1.075288586395041;1.798156817102829
0.154000000000000;-1.120245688235662;-1.082091930126274;1.798156817102829
0.155000000000000;-1.127084673764373;-1.088900790346164;1.798156817102829
0.156000000000000;-1.133923429667606;-1.095715153747323;1.798156817102829
0.157000000000000;-1.140761978315540;-1.102535004571022;1.798156817102829
0.158000000000000;-1.147600343776811;-1.109360324598932;1.798156817102829
0.159000000000000;-1.154438565662150;-1.116191093144505;1.798156817102829
0.160000000000000;-1.161276694534058;-1.123027287043926;1.798156817102829
0.161000000000000;-1.168114823978697;-1.129868880646747;1.798156817102829
0.162000000000000;-1.174953420337371;-1.136715845806137;1.798156817102829
0.163000000000000;-1.181792837971404;-1.143568151868827;1.798156817102829
0.164000000000000;-1.188632149852425;-1.150425765664715;1.798156817102829
0.165000000000000;-1.195471297927848;-1.157288651496185;1.798156817102829
0.166000000000000;-1.202310268584868;-1.164156771127121;1.798156817102829
0.167000000000000;-1.209149071293344;-1.171030083771641;1.798156817102829
0.168000000000000;-1.215987765615958;-1.177908546082610;1.798156817102829
0.169000000000000;-1.222827293935408;-1.184792112139830;1.798156817102829
0.170000000000000;-1.229667355002480;-1.191680733438069;1.798156817102829
0.171000000000000;-1.236507339866161;-1.198574358874792;1.798156817102829
0.172000000000000;-1.243347209156260;-1.205472934737741;1.798156817102829
0.173000000000000;-1.250186931820108;-1.212376404692268;1.798156817102829
0.174000000000000;-1.257026480155290;-1.219284709768494;1.798156817102829
0.175000000000000;-1.263865830038901;-1.226197788348279;1.798156817102829
0.176000000000000;-1.270704962710552;-1.233115576152033;1.798156817102829
0.177000000000000;-1.277543867915626;-1.240038006225345;1.798156817102829
0.178000000000000;-1.284382545309899;-1.246965008925484;1.798156817102829
0.179000000000000;-1.291221007797337;-1.253896511907748;1.798156817102829
0.180000000000000;-1.298059315020484;-1.260832440111673;1.798156817102829
0.181000000000000;-1.304897579029662;-1.267772715747132;1.798156817102829
0.182000000000000;-1.311736127093071;-1.274717258280305;1.798156817102829
0.183000000000000;-1.318575630533454;-1.281665984419581;1.798156817102829
0.184000000000000;-1.325415234266224;-1.288618808101283;1.798156817102829
0.185000000000000;-1.332254706766765;-1.295575640475417;1.798156817102829
0.186000000000000;-1.339094018040433;-1.302536389891230;1.798156817102829
0.187000000000000;-1.345933156093565;-1.309500961882774;1.798156817102829
0.188000000000000;-1.352772134291405;-1.316469259154352;1.798156817102829
0.189000000000000;-1.359611616340128;-1.323441181565960;1.798156817102829
0.190000000000000;-1.366451801680386;-1.330416626118611;1.798156817102829
0.191000000000000;-1.373291935024739;-1.337395486939690;1.798156817102829
0.192000000000000;-1.380131989712593;-1.344377655268197;1.798156817102829
0.193000000000000;-1.386971941117273;-1.351363019440047;1.798156817102829
0.194000000000000;-1.393811764072157;-1.358351464873243;1.798156817102829
0.195000000000000;-1.400651432147070;-1.365342874053149;1.798156817102829
0.196000000000000;-1.407490917289226;-1.372337126517642;1.798156817102829
0.197000000000000;-1.414330189586900;-1.379334098842355;1.798156817102829
0.198000000000000;-1.421169217087664;-1.386333664625847;1.798156817102829
0.199000000000000;-1.428007965645511;-1.393335694474837;1.798156817102829
0.200000000000000;-1.434846398783941;-1.400340055989426;1.798156817102829
0.201000000000000;-1.441684477566259;-1.407346613748342;1.798156817102829
0.202000000000000;-1.448522160466508;-1.414355229294221;1.798156817102829
0.203000000000000;-1.455359403236922;-1.421365761118896;1.798156817102829
0.204000000000000;-1.462196158770445;-1.428378064648764;1.798156817102829
0.205000000000000;-1.469032376959023;-1.435391992230157;1.798156817102829
0.206000000000000;-1.475868004549450;-1.442407393114769;1.798156817102829
0.207000000000000;-1.482702984998690;-1.449424113445161;1.798156817102829
0.208000000000000;-1.489537258330147;-1.456441996240284;1.798156817102829
0.209000000000000;-1.496370760991732;-1.463460881381111;1.798156817102829
0.210000000000000;-1.503203425715995;-1.470480605596278;1.798156817102829
0.211000000000000;-1.510035181382318;-1.477501002447868;1.798156817102829
0.212000000000000;-1.516865952881049;-1.484521902317209;1.798156817102829
0.213000000000000;-1.523695660979626;-1.491543132390774;1.798156817102829
0.214000000000000;-1.530524222191027;-1.498564516646204;1.798156817102829
0.215000000000000;-1.537351548645215;-1.505585875838365;1.798156817102829
0.216000000000000;-1.544177547964591;-1.512607027485524;1.798156817102829
0.217000000000000;-1.551002123144685;-1.519627785855643;1.798156817102829
0.218000000000000;-1.557825172441478;-1.526647961952736;1.798156817102829
0.219000000000000;-1.564646589266750;-1.533667363503374;1.798156817102829
0.220000000000000;-1.571466262092748;-1.540685794943265;1.798156817102829
0.221000000000000;-1.578284074367229;-1.547703057403983;1.798156817102829
0.222000000000000;-1.585099904439619;-1.554718948699795;1.798156817102829
0.223000000000000;-1.591913625498620;-1.561733263314600;1.798156817102829
0.224000000000000;-1.598725105521115;-1.568745792389032;1.798156817102829
0.225000000000000;-1.605534207231825;-1.575756323707651;1.798156817102829
0.226000000000000;-1.612340788072713;-1.582764641686308;1.798156817102829
0.227000000000000;-1.619144700180870;-1.589770527359613;1.798156817102829
0.228000000000000;-1.625945790373402;-1.596773758368554;1.798156817102829
0.229000000000000;-1.632743900137819;-1.603774108948269;1.798156817102829
0.230000000000000;-1.639538865626472;-1.610771349915963;1.798156817102829
0.231000000000000;-1.646330517653767;-1.617765248658980;1.798156817102829
0.232000000000000;-1.653118681695122;-1.624755569122977;1.798156817102829
0.233000000000000;-1.659903177886847;-1.631742071800375;1.798156817102829
0.234000000000000;-1.666683821026459;-1.638724513718803;1.798156817102829
0.235000000000000;-1.673460420573060;-1.645702648429870;1.798156817102829
0.236000000000000;-1.680232780647713;-1.652676225997988;1.798156817102829
0.237000000000000;-1.687000700033822;-1.659644992989414;1.798156817102829
0.238000000000000;-1.693763972177677;-1.666608692461446;1.798156817102829
0.239000000000000;-1.700522385189411;-1.673567063951809;1.798156817102829
0.240000000000000;-1.707275721844635;-1.680519843468213;1.798156817102829
0.241000000000000;-1.714023759587069;-1.687466763478056;1.798156817102829
0.242000000000000;-1.720766270532484;-1.694407552898372;1.798156817102829
0.243000000000000;-1.727503021474260;-1.701341937085923;1.798156817102829
0.244000000000000;-1.734233773890812;-1.708269637827472;1.798156817102829
0.245000000000000;-1.740958283955143;-1.715190373330253;1.798156817102829
0.246000000000000;-1.747676302546712;-1.722103858212656;1.798156817102829
0.247000000000000;-1.754387575265763;-1.729009803495107;1.798156817102829
0.248000000000000;-1.761091842450192;-1.735907916591064;1.798156817102829
0.249000000000000;-1.767788839195021;-1.742797901298314;1.798156817102829
0.250000000000000;-1.774478295374469;-1.749679457790422;1.798156817102829
0.251000000000000;-1.781159935666537;-1.756552282608402;1.798156817102829
0.252000000000000;-1.787833479580036;-1.763416068652524;1.798156817102829
0.253000000000000;-1.794498641483917;-1.770270505174451;1.798156817102829
0.254000000000000;-1.801155130638700;-1.777115277769485;1.798156817102829
0.255000000000000;-1.807802651229828;-1.783950068369013;1.798156817102829
0.256000000000000;-1.814440902402713;-1.790774555233300;1.798156817102829
0.257000000000000;-1.821069578299197;-1.797588412944272;1.798156817102829
0.258000000000000;-1.827688368095230;-1.804391312398770;1.798156817102829
0.259000000000000;-1.834296956039443;-1.811182920801791;1.798156817102829
0.260000000000000;-1.840895021492389;-1.817962901660107;1.798156817102829
0.261000000000000;-1.847482238966192;-1.824730914776024;1.798156817102829
0.262000000000000;-1.854058278164328;-1.831486616241369;1.798156817102829
0.263000000000000;-1.860622804021352;-1.838229658431732;1.798156817102829
0.264000000000000;-1.867175476742301;-1.844959690000894;1.798156817102829
0.265000000000000;-1.873715951841623;-1.851676355875538;1.798156817102829
0.266000000000000;-1.880243880181391;-1.858379297250084;1.798156817102829
0.267000000000000;-1.886758908008710;-1.865068151581848;1.798156817102829
0.268000000000000;-1.893260676992154;-1.871742552586392;1.798156817102829
0.269000000000000;-1.899748824257101;-1.878402130233096;1.798156817102829
