Density;f;f0;u;P;u_0;P_0;T
0.000001000000000;0.000000000000000;0.000000000000000;0.000000000000000;0.000000000000000;0.000000000000000;0.000000000000000;120.000000000000007
34.183343553567063;0.085879109618248;0.086049619813360;0.003180193328163;0.022830531485096;0.003187187926054;0.022899120032714;120.000000000000007
68.366687107134126;0.218279257685959;0.218792423814428;0.004257493632961;0.072791477379275;0.004270566886046;0.073172086253965;120.000000000000007
102.550030660701182;0.367741574224807;0.368796131163267;0.004526657327812;0.096467273532787;0.004544955464155;0.097289191037312;120.000000000000007
136.733374214268252;0.528051920382081;0.529805431658680;0.004822158193916;0.131298040467070;0.004844747617260;0.132633257265806;120.000000000000007
170.916717767835308;0.696252846139979;0.698850034331356;0.005015529626054;0.160985015412519;0.005042258263672;0.162956198233253;120.000000000000007
205.100061321402364;0.870602400934904;0.874180915974523;0.005178652636094;0.191539572290198;0.005209314717435;0.194249852013798;120.000000000000007
239.283404874969420;1.049951052409397;1.054642742475525;0.005311136325694;0.220915731357732;0.005345577122213;0.224465152349413;120.000000000000007
273.466748428536505;1.233483320998687;1.239414678302381;0.005423972262179;0.249792737106041;0.005462037234112;0.254270883905881;120.000000000000007
307.650091982103561;1.420590852673620;1.427883252641602;0.005521079989251;0.277969913859974;0.005562622914152;0.283458198558957;120.000000000000007
341.833435535670617;1.610802619035179;1.619572526786361;0.005606019502128;0.305522287057147;0.005650899811472;0.312093969636896;120.000000000000007
376.016779089237673;1.803743300217494;1.814102500129447;0.005681082830036;0.332439167271927;0.005729167290319;0.340160531239744;120.000000000000007
410.200122642804729;1.999106919246088;2.011162773551789;0.005748027110747;0.358734506536550;0.005799190336661;0.367665813775610;120.000000000000007
444.383466196371785;2.196639329483598;2.210495054566941;0.005808166173805;0.384413687076168;0.005862290995471;0.394610137852398;120.000000000000007
478.566809749938841;2.396126130926553;2.411881077682126;0.005862524545149;0.409483537726060;0.005919501935982;0.420996079129316;120.000000000000007
512.750153303505954;2.597384066152963;2.615133993578006;0.005911911673704;0.433949550855304;0.005971640434454;0.446825554661770;120.000000000000007
546.933496857073010;2.800254729660732;2.820092064503413;0.005956979429563;0.457816860455862;0.006019365706590;0.472100670263177;120.000000000000007
581.116840410640066;3.004599863399976;3.026613941780494;0.005998260120167;0.481090105592786;0.006063216842487;0.496823472449958;120.000000000000007
615.300183964207122;3.210297769002989;3.234575058168847;0.006036194138698;0.503773594981344;0.006103640425942;0.520996018764404;120.000000000000007
649.483527517774178;3.417240524408972;3.443864824276557;0.006071149953307;0.525871363354520;0.006141010529386;0.544620356872977;120.000000000000007
683.666871071341234;3.625331791687917;3.654384416741694;0.006103438981976;0.547387239894634;0.006175643614616;0.567698530114608;120.000000000000007
717.850214624908290;3.834485067172772;3.866045009813288;0.006133326806584;0.568324897298154;0.006207809783567;0.590232575670598;120.000000000000007
752.033558178475346;4.044622267796680;4.078766344485456;0.006161041765680;0.588687893334180;0.006237741412478;0.612224524937968;120.000000000000007
786.216901732042402;4.255672576646244;4.292475558287295;0.006186781624704;0.608479704020959;0.006265639864494;0.633676403343673;120.000000000000007
820.400245285609458;4.467571490951921;4.507106218942879;0.006210718817963;0.627703750704947;0.006291680772846;0.654590230358520;120.000000000000007
854.583588839176514;4.680260030021425;4.722597519345376;0.006233004613705;0.646363422010045;0.006316018244815;0.674968019482071;120.000000000000007
888.766932392743570;4.893684070884992;4.938893601524635;0.006253772457049;0.664462091648712;0.006338788240705;0.694811778253603;120.000000000000007
922.950275946310626;5.107793786906139;5.155942984760888;0.006273140677894;0.682003132806283;0.006360111314783;0.714123508267762;120.000000000000007
957.133619499877682;5.322543170144794;5.373698078528903;0.006291214703091;0.698989929675598;0.006380094857516;0.732905205197510;120.000000000000007
991.316963053444738;5.537889622402226;5.592114765102926;0.006308088877789;0.715425886598765;0.006398834944158;0.751158858820527;120.000000000000007
1025.500306607011908;5.753793603014353;5.811152039796211;0.006323847975881;0.731314435187952;0.006416417869845;0.768886453048586;120.000000000000007
1059.683650160578964;5.970218323861467;6.030771699217654;0.006338568461039;0.746659039725492;0.006432921432867;0.786089965959201;120.000000000000007
1093.866993714146020;6.187129483918641;6.250938069792045;0.006352319546110;0.761463201096642;0.006448416014154;0.802771369828285;120.000000000000007
1128.050337267713076;6.404495037119476;6.471617770246002;0.006365164088312;0.775730459465465;0.006462965490590;0.818932631164152;120.000000000000007
1162.233680821280132;6.622284988445181;6.692779502908185;0.006377159349812;0.789464395871044;0.006476628011960;0.834575710742125;120.000000000000007
1196.417024374847188;6.840471214054880;6.914393869582369;0.006388357647241;0.802668632899617;0.006489456665228;0.849702563639456;120.000000000000007
1230.600367928414244;7.059027301995064;7.136433208479904;0.006398806909032;0.815346834562304;0.006501500045234;0.864315139271227;120.000000000000007
1264.783711481981300;7.277928410607136;7.358871449284188;0.006408551155837;0.827502705494388;0.006512802747165;0.878415381425403;120.000000000000007
1298.967055035548356;7.497151142222553;7.581683983894944;0.006417630916414;0.839139989576714;0.006523405793353;0.892005228298816;120.000000000000007
1333.150398589115412;7.716673430118496;7.804847550787656;0.006426083589108;0.850262468067853;0.006533347004613;0.905086612533450;120.000000000000007
1367.333742142682468;7.936474437021251;8.028340131241375;0.006433943757257;0.860873957324563;0.006542661324567;0.917661461251678;120.000000000000007
1401.517085696249524;8.156534463703446;8.252140855950358;0.006441243465397;0.870978306180334;0.006551381103914;0.929731696092693;120.000000000000007
1435.700429249816580;8.376834866435834;8.476229920752424;0.006448012461985;0.880579393044030;0.006559536350436;0.941299233248026;120.000000000000007
1469.883772803383636;8.597357982232866;8.700588510388013;0.006454278413398;0.889681122776574;0.006567154949588;0.952365983497412;120.000000000000007
1504.067116356950692;8.818087060980682;8.925198729355650;0.006460067093218;0.898287423387970;0.006574262859726;0.962933852244765;120.000000000000007
1538.250459910517748;9.039006203661366;9.150043539056913;0.006465402550144;0.906402242604631;0.006580884285384;0.973004739553151;120.000000000000007
1572.433803464084804;9.260100305993452;9.375106700531726;0.006470307257404;0.914029544348343;0.006587041831519;0.982580540180956;120.000000000000007
1606.617147017651860;9.481355006897950;9.600372722176029;0.006474802246048;0.921173305151852;0.006592756641155;0.991663143617327;120.000000000000007
1640.800490571218916;9.702756641275368;9.825826811911519;0.006478907224197;0.927837510553157;0.006598048518537;1.000254434116918;120.000000000000007
1674.983834124785972;9.924292196644346;10.051454833343474;0.006482640683997;0.934026151490190;0.006602936039593;1.008356290735422;120.000000000000007
1709.167177678353028;10.145949273247830;10.277243265499569;0.006486019997778;0.939743220720311;0.006607436651226;1.015970587364905;120.000000000000007
1743.350521231920084;10.367716047280728;10.503179165791403;0.006489061504727;0.944992709290407;0.006611566760777;1.023099192768566;120.000000000000007
1777.533864785487140;10.589581236933991;10.729250135882651;0.006491780589169;0.949778603070666;0.006615341816802;1.029743970615302;120.000000000000007
1811.717208339054196;10.811534070985614;10.955444290184264;0.006494191751452;0.954104879373070;0.006618776382155;1.035906779514768;120.000000000000007
1845.900551892621252;11.033564259699947;11.181750226728779;0.006496308672248;0.957975503667138;0.006621884200234;1.041589473051937;120.000000000000007
1880.083895446188308;11.255661967823409;11.408157000203367;0.006498144271020;0.961394426406677;0.006624678255153;1.046793899821713;120.000000000000007
1914.267238999755364;11.477817789488061;11.634654096945312;0.006499710759279;0.964365579973039;0.006627170826492;1.051521903463165;120.000000000000007
1948.450582553322420;11.700022724854801;11.861231411724614;0.006501019689197;0.966892875751983;0.006629373539200;1.055775322693478;120.000000000000007
1982.633926106889476;11.922268158346006;12.087879226156934;0.006502081998064;0.968980201344385;0.006631297409157;1.059555991342624;120.000000000000007
2016.817269660456759;12.144545838332789;12.314588188606269;0.006502908049008;0.970631417920719;0.006632952884842;1.062865738386943;120.000000000000007
2051.000613214023815;12.366847858156188;12.541349295451056;0.006503507668373;0.971850357719386;0.006634349885499;1.065706387983324;120.000000000000007
2085.183956767590644;12.589166638373360;12.768153873600093;0.006503890180075;0.972640821697604;0.006635497836148;1.068079759502718;120.000000000000007
2119.367300321157927;12.811494910131078;12.994993564155759;0.006504064437239;0.973006577335795;0.006636405699752;1.069987667564291;120.000000000000007
2153.550643874724756;13.033825699577788;13.221860307131992;0.006504038851376;0.972951356589508;0.006637082006803;1.071431922067910;120.000000000000007
2187.733987428292039;13.256152313234466;13.448746327143310;0.006503821419333;0.972478854005299;0.006637534882585;1.072414328228740;120.000000000000007
2221.917330981858868;13.478468324251592;13.675644119988974;0.006503419748224;0.971592724976727;0.006637772072322;1.072936686610062;120.000000000000007
2256.100674535426151;13.700767559486419;13.902546440063420;0.006502841078522;0.970296584164608;0.006637800964402;1.073000793155998;120.000000000000007
2290.284018088992980;13.923044087340811;14.129446288530342;0.006502092305489;0.968594004061075;0.006637628611861;1.072608439225810;120.000000000000007
2324.467361642560263;14.145292206304870;14.356336902203450;0.006501179999069;0.966488513695555;0.006637261752269;1.071761411625157;120.000000000000007
2358.650705196127092;14.367506434156743;14.583211743081863;0.006500110422404;0.963983597499448;0.006636706826169;1.070461492640764;120.000000000000007
2392.834048749694375;14.589681497773151;14.810064488492792;0.006498889549066;0.961082694296630;0.006635969994184;1.068710460071323;120.000000000000007
2427.017392303261204;14.811812323508748;15.036889021797990;0.006497523079131;0.957789196433062;0.006635057152919;1.066510087262060;120.000000000000007
2461.200735856828487;15.033894028106390;15.263679423624426;0.006496016454175;0.954106449046753;0.006633973949742;1.063862143136499;120.000000000000007
2495.384079410395316;15.255921910103080;15.490429963582567;0.006494374871294;0.950037749448104;0.006632725796552;1.060768392226837;120.000000000000007
2529.567422963962599;15.477891441699287;15.717135092439054;0.006492603296216;0.945586346636032;0.006631317882602;1.057230594710521;120.000000000000007
2563.750766517529428;15.699798261062121;15.943789434712945;0.006490706475570;0.940755440921180;0.006629755186476;1.053250506438529;120.000000000000007
2597.934110071096711;15.921638165034659;16.170387781667309;0.006488688948402;0.935548183659622;0.006628042487254;1.048829878969908;120.000000000000007
2632.117453624663540;16.143407102226373;16.396925084670180;0.006486555056960;0.929967677094119;0.006626184374962;1.043970459602161;120.000000000000007
2666.300797178230823;16.365101166460974;16.623396448900834;0.006484308956830;0.924016974284800;0.006624185260342;1.038673991404352;120.000000000000007
2700.484140731798107;16.586716590560162;16.849797127379322;0.006481954626463;0.917699079145969;0.006622049383998;1.032942213249449;120.000000000000007
2734.667484285364935;16.808249740443049;17.076122515298678;0.006479495876121;0.911016946547054;0.006619780824970;1.026776859842609;120.000000000000007
2768.850827838932219;17.029697109522477;17.302368144641026;0.006476936356313;0.903973482514065;0.006617383508775;1.020179661758299;120.000000000000007
2803.034171392499047;17.251055313381073;17.528529679059933;0.006474279565724;0.896571544492136;0.006614861214951;1.013152345466889;120.000000000000007
2837.217514946066331;17.472321084710529;17.754602909012831;0.006471528858700;0.888813941672339;0.006612217584149;1.005696633368498;120.000000000000007
2871.400858499633159;17.693491268499262;17.980583747128442;0.006468687452296;0.880703435390579;0.006609456124795;0.997814243824568;120.000000000000007
2905.584202053200443;17.914562817454232;18.206468223795184;0.006465758432934;0.872242739570328;0.006606580219364;0.989506891187215;120.000000000000007
2939.767545606767271;18.135532787643790;18.432252482957576;0.006462744762680;0.863434521221969;0.006603593130281;0.980776285833336;120.000000000000007
2973.950889160334555;18.356398334349226;18.657932778108570;0.006459649285180;0.854281400975079;0.006600498005481;0.971624134192233;120.000000000000007
3008.134232713901383;18.577156708113439;18.883505468466456;0.006456474731267;0.844785953664093;0.006597297883659;0.962052138779111;120.000000000000007
3042.317576267468667;18.797805250976101;19.108967015326009;0.006453223724261;0.834950708927948;0.006593995699214;0.952061998225705;120.000000000000007
3076.500919821035495;19.018341392884839;19.334313978573899;0.006449898784979;0.824778151854140;0.006590594286923;0.941655407310652;120.000000000000007
3110.684263374602779;19.238762648273401;19.559543013359416;0.006446502336482;0.814270723629910;0.006587096386349;0.930834056988655;120.000000000000007
3144.867606928169607;19.459066612797237;19.784650866911786;0.006443036708566;0.803430822219728;0.006583504646022;0.919599634423946;120.000000000000007
3179.050950481736891;19.679250960218805;20.009634375496351;0.006439504142006;0.792260803055907;0.006579821627378;0.907953823021501;120.000000000000007
3213.234294035303719;19.899313439433939;20.234490461501867;0.006435906792587;0.780762979722848;0.006576049808499;0.895898302451428;120.000000000000007
3247.417637588871003;20.119251871632446;20.459216130652166;0.006432246734921;0.768939624672768;0.006572191587647;0.883434748687311;120.000000000000007
3281.600981142437831;20.339064147585542;20.683808469335538;0.006428525966053;0.756792969914624;0.006568249286622;0.870564834030379;120.000000000000007
3315.784324696005115;20.558748225053620;20.908264642045683;0.006424746408898;0.744325207717225;0.006564225153934;0.857290227143615;120.000000000000007
3349.967668249571943;20.778302126308077;21.132581888928573;0.006420909915480;0.731538491292454;0.006560121367826;0.843612593080817;120.000000000000007
3384.151011803139227;20.997723935761254;21.356757523429689;0.006417018270019;0.718434935483934;0.006555940039131;0.829533593315450;120.000000000000007
3418.334355356706055;21.217011797699069;21.580788930036686;0.006413073191853;0.705016617428381;0.006551683213994;0.815054885771563;120.000000000000007
3452.517698910273339;21.436163914110800;21.804673562112615;0.006409076338207;0.691285577214412;0.006547352876454;0.800178124855247;120.000000000000007
3486.701042463840167;21.655178542611406;22.028408939815325;0.006405029306827;0.677243818513062;0.006542950950902;0.784904961483321;120.000000000000007
3520.884386017407451;21.874053994451213;22.251992648098668;0.006400933638475;0.662893309189688;0.006538479304414;0.769237043109325;120.000000000000007
3555.067729570974279;22.092788632609004;22.475422334791688;0.006396790819303;0.648235981911373;0.006533939748978;0.753176013762666;120.000000000000007
3589.251073124541563;22.311380869963937;22.698695708751991;0.006392602283097;0.633273734700467;0.006529334043611;0.736723514067680;120.000000000000007
3623.434416678108391;22.529829167542410;22.921810538089655;0.006388369413418;0.618008431491852;0.006524663896372;0.719881181280712;120.000000000000007
3657.617760231675675;22.748132032836224;23.144764648458594;0.006384093545634;0.602441902653801;0.006519930966287;0.702650649317299;120.000000000000007
3691.801103785242503;22.966288018188269;23.367555921411917;0.006379775968838;0.586575945469907;0.006515136865182;0.685033548779934;120.000000000000007
3725.984447338809787;23.184295719242439;23.590182292818625;0.006375417927691;0.570412324619593;0.006510283159431;0.667031506991862;120.000000000000007
3760.167790892376615;23.402153773454710;23.812641751338560;0.006371020624157;0.553952772610110;0.006505371371620;0.648646148018706;120.000000000000007
3794.351134445943899;23.619860858662065;24.034932336953155;0.006366585219154;0.537198990182969;0.006500402982146;0.629879092707647;120.000000000000007
3828.534477999510727;23.837415691706671;24.257052139549398;0.006362112834136;0.520152646704616;0.006495379430736;0.610731958710947;120.000000000000007
3862.717821553078011;24.054817027112442;24.478999297554594;0.006357604552577;0.502815380513077;0.006490302117898;0.591206360514185;120.000000000000007
3896.901165106644839;24.272063655811454;24.700771996619739;0.006353061421402;0.485188799245734;0.006485172406315;0.571303909468210;120.000000000000007
3931.084508660212123;24.489154403917798;24.922368468349340;0.006348484452338;0.467274480140009;0.006479991622171;0.551026213815611;120.000000000000007
3965.267852213778951;24.706088131546586;25.143786989075679;0.006343874623201;0.449073970306515;0.006474761056423;0.530374878725475;120.000000000000007
3999.451195767346235;24.922863731675893;25.365025878675624;0.006339232879119;0.430588786965359;0.006469481966019;0.509351506314882;120.000000000000007
4033.634539320913518;25.139480129049552;25.586083499428057;0.006334560133707;0.411820417677994;0.006464155575060;0.487957695679430;120.000000000000007
4067.817882874480347;25.355936279119035;25.806958254910359;0.006329857270175;0.392770320540198;0.006458783075921;0.466195042929463;120.000000000000007
4102.001226428047630;25.572231167022348;26.027648588932248;0.006325125142385;0.373439924351622;0.006453365630315;0.444065141209176;120.000000000000007
4136.184569981614914;25.788363806598358;26.248152984505282;0.006320364575869;0.353830628771121;0.006447904370320;0.421569580729305;120.000000000000007
4170.367913535181287;26.004333239434860;26.468469962846797;0.006315576368790;0.333943804447856;0.006442400399362;0.398709948798906;120.000000000000007
4204.551257088748571;26.220138533948930;26.688598082416686;0.006310761292861;0.313780793138712;0.006436854793157;0.375487829848531;120.000000000000007
4238.734600642315854;26.435778784497945;26.908535937985704;0.006305920094229;0.293342907795168;0.006431268600614;0.351904805462450;120.000000000000007
4272.917944195883138;26.651253110520013;27.128282159734123;0.006301053494308;0.272631432648790;0.006425642844707;0.327962454407992;120.000000000000007
4307.101287749449511;26.866560655702539;27.347835412379425;0.006296162190593;0.251647623280768;0.006419978523302;0.303662352658904;120.000000000000007
4341.284631303016795;27.081700587177640;27.567194394331906;0.006291246857418;0.230392706666237;0.006414276609963;0.279006073428686;120.000000000000007
4375.467974856584078;27.296672094743219;27.786357836877134;0.006286308146701;0.208867881228048;0.006408538054720;0.253995187200189;120.000000000000007
4409.651318410151362;27.511474390108845;28.005324503384152;0.006281346688647;0.187074316873534;0.006402763784805;0.228631261749502;120.000000000000007
4443.834661963717735;27.726106706165130;28.224093188538465;0.006276363092422;0.165013155007664;0.006396954705365;0.202915862175423;120.000000000000007
4478.018005517285019;27.940568296275799;28.442662717598843;0.006271357946807;0.142685508570153;0.006391111700147;0.176850550929569;120.000000000000007
4512.201349070852302;28.154858433591627;28.661031945677035;0.006266331820825;0.120092462061049;0.006385235632150;0.150436887846521;120.000000000000007
