Density;f;f0;u;P;T
0.000000000029254;0.000000000000006;-0.000000000000002;0.104239153740507
0.001000000000000;0.000262489903952;0.000263011069169;0.104239153740507
0.002000000000000;0.000667171581535;0.000668740076229;0.104239153740507
0.003000000000000;0.001124003857593;0.001127227115854;0.104239153740507
0.004000000000000;0.001613993187390;0.001619352802885;0.104239153740507
0.005000000000000;0.002128100110985;0.002136038428952;0.104239153740507
0.006000000000000;0.002661000348257;0.002671938096368;0.104239153740507
0.007000000000000;0.003209180348129;0.003223520520964;0.104239153740507
0.008000000000000;0.003770147593461;0.003788276815060;0.104239153740507
0.009000000000000;0.004342042647293;0.004364331902220;0.104239153740507
0.010000000000000;0.004923425809098;0.004950231073539;0.104239153740507
0.011000000000000;0.005513149911935;0.005544812855368;0.104239153740507
0.012000000000000;0.006110279735737;0.006147128511333;0.104239153740507
0.013000000000000;0.006714038480107;0.006756388569232;0.104239153740507
0.014000000000000;0.007323770830422;0.007371925899554;0.104239153740507
0.015000000000000;0.007938916659508;0.007993169396473;0.104239153740507
0.016000000000000;0.008558991800198;0.008619624707790;0.104239153740507
0.017000000000000;0.009183573666112;0.009250859800602;0.104239153740507
0.018000000000000;0.009812290285613;0.009886493934553;0.104239153740507
0.019000000000000;0.010444811794413;0.010526189092642;0.104239153740507
0.020000000000000;0.011080843735175;0.011169643220799;0.104239153740507
0.021000000000000;0.011720121709031;0.011816584822695;0.104239153740507
0.022000000000000;0.012362407054720;0.012466768586301;0.104239153740507
0.023000000000000;0.013007483320011;0.013119971807130;0.104239153740507
0.024000000000000;0.013655153351884;0.013775991434618;0.104239153740507
0.025000000000000;0.014305236875576;0.014434641611555;0.104239153740507
0.026000000000000;0.014957568463973;0.015095751607791;0.104239153740507
0.027000000000000;0.015611995821727;0.015759164072265;0.104239153740507
0.028000000000000;0.016268378325350;0.016424733544310;0.104239153740507
0.029000000000000;0.016926585773247;0.017092325177889;0.104239153740507
0.030000000000000;0.017586497309193;0.017761813641985;0.104239153740507
0.031000000000000;0.018248000490125;0.018433082167752;0.104239153740507
0.032000000000000;0.018910990474799;0.019106021718738;0.104239153740507
0.033000000000000;0.019575369314261;0.019780530264925;0.104239153740507
0.034000000000000;0.020241045328596;0.020456512144831;0.104239153740507
0.035000000000000;0.020907932557150;0.021133877502732;0.104239153740507
0.036000000000000;0.021575950271664;0.021812541790240;0.104239153740507
0.037000000000000;0.022245022543490;0.022492425323309;0.104239153740507
0.038000000000000;0.022915077857543;0.023173452887164;0.104239153740507
0.039000000000000;0.023586048766783;0.023855553382846;0.104239153740507
0.040000000000000;0.024257871581982;0.024538659510031;0.104239153740507
0.041000000000000;0.024930486092360;0.025222707481586;0.104239153740507
0.042000000000000;0.025603835313270;0.025907636765997;0.104239153740507
0.043000000000000;0.026277865257714;0.026593389854334;0.104239153740507
0.044000000000000;0.026952524728889;0.027279912048912;0.104239153740507
0.045000000000000;0.027627765131371;0.027967151271175;0.104239153740507
0.046000000000000;0.028303540298855;0.028655057886665;0.104239153740507
0.047000000000000;0.028979806336633;0.029343584545220;0.104239153740507
0.048000000000000;0.029656521477265;0.030032686034784;0.104239153740507
0.049000000000000;0.030333645948039;0.030722319147399;0.104239153740507
0.050000000000000;0.031011141849041;0.031412442556149;0.104239153740507
0.051000000000000;0.031688973040753;0.032103016701953;0.104239153740507
0.052000000000000;0.032367105040273;0.032794003689236;0.104239153740507
0.053000000000000;0.033045504925311;0.033485367189640;0.104239153740507
0.054000000000000;0.033724141245241;0.034177072352997;0.104239153740507
0.055000000000000;0.034402983938563;0.034869085724907;0.104239153740507
0.056000000000000;0.035082004256199;0.035561375170309;0.104239153740507
0.057000000000000;0.035761174690096;0.036253909802522;0.104239153740507
0.058000000000000;0.036440468906702;0.036946659917256;0.104239153740507
0.059000000000000;0.037119861684875;0.037639596931194;0.104239153740507
0.060000000000000;0.037799328857872;0.038332693324722;0.104239153740507
0.061000000000000;0.038478847259093;0.039025922588497;0.104239153740507
0.062000000000000;0.039158394671252;0.039719259173509;0.104239153740507
0.063000000000000;0.039837949778739;0.040412678444371;0.104239153740507
0.064000000000000;0.040517492122904;0.041106156635583;0.104239153740507
0.065000000000000;0.041197002060051;0.041799670810518;0.104239153740507
0.066000000000000;0.041876460721941;0.042493198822950;0.104239153740507
0.067000000000000;0.042555849978615;0.043186719280901;0.104239153740507
0.068000000000000;0.043235152403382;0.043880211512661;0.104239153740507
0.069000000000000;0.043914351239804;0.044573655534800;0.104239153740507
0.070000000000000;0.044593430370556;0.045267032022039;0.104239153740507
0.071000000000000;0.045272374288016;0.045960322278843;0.104239153740507
0.072000000000000;0.045951168066486;0.046653508212621;0.104239153740507
0.073000000000000;0.046629797335922;0.047346572308410;0.104239153740507
0.074000000000000;0.047308248257084;0.048039497604953;0.104239153740507
0.075000000000000;0.047986507498008;0.048732267672066;0.104239153740507
0.076000000000000;0.048664562211726;0.049424866589221;0.104239153740507
0.077000000000000;0.049342400015144;0.050117278925250;0.104239153740507
0.078000000000000;0.050020008969014;0.050809489719110;0.104239153740507
0.079000000000000;0.050697377558940;0.051501484461636;0.104239153740507
0.080000000000000;0.051374494677335;0.052193249078211;0.104239153740507
0.081000000000000;0.052051349606299;0.052884769912320;0.104239153740507
0.082000000000000;0.052727932001345;0.053576033709898;0.104239153740507
0.083000000000000;0.053404231875929;0.054267027604459;0.104239153740507
0.084000000000000;0.054080239586744;0.054957739102934;0.104239153740507
0.085000000000000;0.054755945819723;0.055648156072184;0.104239153740507
0.086000000000000;0.055431341576727;0.056338266726160;0.104239153740507
0.087000000000000;0.056106418162859;0.057028059613644;0.104239153740507
0.088000000000000;0.056781167174390;0.057717523606570;0.104239153740507
0.089000000000000;0.057455580487251;0.058406647888869;0.104239153740507
0.090000000000000;0.058129650246067;0.059095421945818;0.104239153740507
0.091000000000000;0.058803368853691;0.059783835553864;0.104239153740507
0.092000000000000;0.059476728961233;0.060471878770900;0.104239153740507
0.093000000000000;0.060149723458538;0.061159541926955;0.104239153740507
0.094000000000000;0.060822345465095;0.061846815615295;0.104239153740507
0.095000000000000;0.061494588321359;0.062533690683901;0.104239153740507
0.096000000000000;0.062166445580464;0.063220158227306;0.104239153740507
0.097000000000000;0.062837911000294;0.063906209578771;0.104239153740507
0.098000000000000;0.063508978535913;0.064591836302789;0.104239153740507
0.099000000000000;0.064179642332318;0.065277030187894;0.104239153740507
0.100000000000000;0.064849896717510;0.065961783239760;0.104239153740507
0.101000000000000;0.065519736195860;0.066646087674578;0.104239153740507
0.102000000000000;0.066189155441761;0.067329935912700;0.104239153740507
0.103000000000000;0.066858149293541;0.068013320572526;0.104239153740507
0.104000000000000;0.067526712747638;0.068696234464634;0.104239153740507
0.105000000000000;0.068194840953008;0.069378670586137;0.104239153740507
0.106000000000000;0.068862529205772;0.070060622115252;0.104239153740507
0.107000000000000;0.069529772944071;0.070742082406080;0.104239153740507
0.108000000000000;0.070196567743135;0.071423044983579;0.104239153740507
0.109000000000000;0.070862909310543;0.072103503538722;0.104239153740507
0.110000000000000;0.071528793481672;0.072783451923839;0.104239153740507
0.111000000000000;0.072194216215325;0.073462884148124;0.104239153740507
0.112000000000000;0.072859173589523;0.074141794373306;0.104239153740507
0.113000000000000;0.073523661797464;0.074820176909482;0.104239153740507
0.114000000000000;0.074187677143625;0.075498026211083;0.104239153740507
0.115000000000000;0.074851216040019;0.076175336873001;0.104239153740507
0.116000000000000;0.075514275002582;0.076852103626838;0.104239153740507
0.117000000000000;0.076176850647697;0.077528321337289;0.104239153740507
0.118000000000000;0.076838939688837;0.078203984998652;0.104239153740507
0.119000000000000;0.077500538933336;0.078879089731454;0.104239153740507
0.120000000000000;0.078161645279262;0.079553630779191;0.104239153740507
0.121000000000000;0.078822255712410;0.080227603505181;0.104239153740507
0.122000000000000;0.079482367303389;0.080901003389519;0.104239153740507
0.123000000000000;0.080141977204810;0.081573826026130;0.104239153740507
0.124000000000000;0.080801082648573;0.082246067119924;0.104239153740507
0.125000000000000;0.081459680943235;0.082917722484040;0.104239153740507
0.126000000000000;0.082117769471475;0.083588788037182;0.104239153740507
0.127000000000000;0.082775345687626;0.084259259801034;0.104239153740507
0.128000000000000;0.083432407115303;0.084929133897765;0.104239153740507
0.129000000000000;0.084088951345092;0.085598406547606;0.104239153740507
0.130000000000000;0.084744976032320;0.086267074066508;0.104239153740507
0.131000000000000;0.085400478894889;0.086935132863869;0.104239153740507
0.132000000000000;0.086055457711181;0.087602579440332;0.104239153740507
0.133000000000000;0.086709910318024;0.088269410385653;0.104239153740507
0.134000000000000;0.087363834608722;0.088935622376629;0.104239153740507
0.135000000000000;0.088017228531138;0.089601212175093;0.104239153740507
0.136000000000000;0.088670090085846;0.090266176625966;0.104239153740507
0.137000000000000;0.089322417324326;0.090930512655370;0.104239153740507
0.138000000000000;0.089974208347221;0.091594217268791;0.104239153740507
0.139000000000000;0.090625461302640;0.092257287549305;0.104239153740507
0.140000000000000;0.091276174384515;0.092919720655844;0.104239153740507
0.141000000000000;0.091926345831005;0.093581513821525;0.104239153740507
0.142000000000000;0.092575973922943;0.094242664352016;0.104239153740507
0.143000000000000;0.093225056982340;0.094903169623955;0.104239153740507
0.144000000000000;0.093873593370918;0.095563027083412;0.104239153740507
0.145000000000000;0.094521581488702;0.096222234244394;0.104239153740507
0.146000000000000;0.095169019772639;0.096880788687390;0.104239153740507
0.147000000000000;0.095815906695272;0.097538688057963;0.104239153740507
0.148000000000000;0.096462240763444;0.098195930065374;0.104239153740507
0.149000000000000;0.097108020517047;0.098852512481246;0.104239153740507
0.150000000000000;0.097753244527806;0.099508433138263;0.104239153740507
0.151000000000000;0.098397911398103;0.100163689928912;0.104239153740507
0.152000000000000;0.099042019759839;0.100818280804246;0.104239153740507
0.153000000000000;0.099685568273324;0.101472203772690;0.104239153740507
0.154000000000000;0.100328555626217;0.102125456898876;0.104239153740507
0.155000000000000;0.100970980532484;0.102778038302509;0.104239153740507
0.156000000000000;0.101612841731404;0.103429946157259;0.104239153740507
0.157000000000000;0.102254137986601;0.104081178689690;0.104239153740507
0.158000000000000;0.102894868085109;0.104731734178209;0.104239153740507
0.159000000000000;0.103535030836476;0.105381610952046;0.104239153740507
0.160000000000000;0.104174625071890;0.106030807390259;0.104239153740507
0.161000000000000;0.104813649643346;0.106679321920766;0.104239153740507
0.162000000000000;0.105452103422834;0.107327153019401;0.104239153740507
0.163000000000000;0.106089985301569;0.107974299208990;0.104239153740507
0.164000000000000;0.106727294189241;0.108620759058456;0.104239153740507
0.165000000000000;0.107364029013296;0.109266531181946;0.104239153740507
0.166000000000000;0.108000188718252;0.109911614237973;0.104239153740507
0.167000000000000;0.108635772265038;0.110556006928585;0.104239153740507
0.168000000000000;0.109270778630360;0.111199707998555;0.104239153740507
0.169000000000000;0.109905206806099;0.111842716234588;0.104239153740507
0.170000000000000;0.110539055798734;0.112485030464547;0.104239153740507
0.171000000000000;0.111172324628787;0.113126649556701;0.104239153740507
0.172000000000000;0.111805012330304;0.113767572418986;0.104239153740507
0.173000000000000;0.112437117950351;0.114407797998289;0.104239153740507
0.174000000000000;0.113068640548545;0.115047325279748;0.104239153740507
0.175000000000000;0.113699579196599;0.115686153286062;0.104239153740507
0.176000000000000;0.114329932977900;0.116324281076829;0.104239153740507
0.177000000000000;0.114959700987107;0.116961707747889;0.104239153740507
0.178000000000000;0.115588882329772;0.117598432430686;0.104239153740507
0.179000000000000;0.116217476121986;0.118234454291650;0.104239153740507
0.180000000000000;0.116845481490041;0.118869772531581;0.104239153740507
0.181000000000000;0.117472897570123;0.119504386385061;0.104239153740507
0.182000000000000;0.118099723508019;0.120138295119872;0.104239153740507
0.183000000000000;0.118725958458846;0.120771498036426;0.104239153740507
0.184000000000000;0.119351601586804;0.121403994467212;0.104239153740507
0.185000000000000;0.119976652064940;0.122035783776252;0.104239153740507
0.186000000000000;0.120601109074943;0.122666865358575;0.104239153740507
0.187000000000000;0.121224971806949;0.123297238639695;0.104239153740507
0.188000000000000;0.121848239459363;0.123926903075106;0.104239153740507
0.189000000000000;0.122470911238706;0.124555858149788;0.104239153740507
0.190000000000000;0.123092986359473;0.125184103377717;0.104239153740507
0.191000000000000;0.123714464044011;0.125811638301400;0.104239153740507
0.192000000000000;0.124335343522407;0.126438462491404;0.104239153740507
0.193000000000000;0.124955624032399;0.127064575545907;0.104239153740507
0.194000000000000;0.125575304819298;0.127689977090252;0.104239153740507
0.195000000000000;0.126194385135925;0.128314666776514;0.104239153740507
0.196000000000000;0.126812864242560;0.128938644283079;0.104239153740507
0.197000000000000;0.127430741406905;0.129561909314222;0.104239153740507
0.198000000000000;0.128048015904065;0.130184461599705;0.104239153740507
0.199000000000000;0.128664687016532;0.130806300894379;0.104239153740507
0.200000000000000;0.129280754034190;0.131427426977793;0.104239153740507
0.201000000000000;0.129896216254321;0.132047839653813;0.104239153740507
0.202000000000000;0.130511072981635;0.132667538750249;0.104239153740507
0.203000000000000;0.131125323528296;0.133286524118492;0.104239153740507
0.204000000000000;0.131738967213970;0.133904795633153;0.104239153740507
0.205000000000000;0.132352003365873;0.134522353191712;0.104239153740507
0.206000000000000;0.132964431318834;0.135139196714181;0.104239153740507
0.207000000000000;0.133576250415362;0.135755326142760;0.104239153740507
0.208000000000000;0.134187460005725;0.136370741441515;0.104239153740507
0.209000000000000;0.134798059448033;0.136985442596052;0.104239153740507
0.210000000000000;0.135408048108330;0.137599429613201;0.104239153740507
0.211000000000000;0.136017425360691;0.138212702520709;0.104239153740507
0.212000000000000;0.136626190587325;0.138825261366936;0.104239153740507
0.213000000000000;0.137234343178689;0.139437106220558;0.104239153740507
0.214000000000000;0.137841882533598;0.140048237170277;0.104239153740507
0.215000000000000;0.138448808059344;0.140658654324534;0.104239153740507
0.216000000000000;0.139055119171828;0.141268357811234;0.104239153740507
0.217000000000000;0.139660815295679;0.141877347777466;0.104239153740507
0.218000000000000;0.140265895864392;0.142485624389243;0.104239153740507
0.219000000000000;0.140870360320461;0.143093187831231;0.104239153740507
0.220000000000000;0.141474208115521;0.143700038306497;0.104239153740507
0.221000000000000;0.142077438710484;0.144306176036254;0.104239153740507
0.222000000000000;0.142680051575687;0.144911601259614;0.104239153740507
0.223000000000000;0.143282046191035;0.145516314233346;0.104239153740507
0.224000000000000;0.143883422046151;0.146120315231637;0.104239153740507
0.225000000000000;0.144484178640524;0.146723604545860;0.104239153740507
0.226000000000000;0.145084315483657;0.147326182484345;0.104239153740507
0.227000000000000;0.145683832095222;0.147928049372152;0.104239153740507
0.228000000000000;0.146282728005209;0.148529205550857;0.104239153740507
0.229000000000000;0.146881002754079;0.149129651378331;0.104239153740507
0.230000000000000;0.147478655892915;0.149729387228531;0.104239153740507
0.231000000000000;0.148075686983577;0.150328413491294;0.104239153740507
0.232000000000000;0.148672095598851;0.150926730572129;0.104239153740507
0.233000000000000;0.149267881322602;0.151524338892023;0.104239153740507
0.234000000000000;0.149863043749923;0.152121238887243;0.104239153740507
0.235000000000000;0.150457582487286;0.152717431009144;0.104239153740507
0.236000000000000;0.151051497152690;0.153312915723980;0.104239153740507
0.237000000000000;0.151644787375809;0.153907693512722;0.104239153740507
0.238000000000000;0.152237452798137;0.154501764870875;0.104239153740507
0.239000000000000;0.152829493073131;0.155095130308300;0.104239153740507
0.240000000000000;0.153420907866357;0.155687790349044;0.104239153740507
0.241000000000000;0.154011696855624;0.156279745531161;0.104239153740507
0.242000000000000;0.154601859731131;0.156870996406554;0.104239153740507
0.243000000000000;0.155191396195596;0.157461543540802;0.104239153740507
0.244000000000000;0.155780305964392;0.158051387513005;0.104239153740507
0.245000000000000;0.156368588765681;0.158640528915622;0.104239153740507
0.246000000000000;0.156956244340538;0.159228968354316;0.104239153740507
0.247000000000000;0.157543272443083;0.159816706447803;0.104239153740507
0.248000000000000;0.158129672840600;0.160403743827702;0.104239153740507
0.249000000000000;0.158715445313662;0.160990081138389;0.104239153740507
0.250000000000000;0.159300589656242;0.161575719036850;0.104239153740507
0.251000000000000;0.159885105675838;0.162160658192542;0.104239153740507
0.252000000000000;0.160468993193574;0.162744899287257;0.104239153740507
0.253000000000000;0.161052252044320;0.163328443014981;0.104239153740507
0.254000000000000;0.161634882076788;0.163911290081763;0.104239153740507
0.255000000000000;0.162216883153641;0.164493441205584;0.104239153740507
0.256000000000000;0.162798255151588;0.165074897116231;0.104239153740507
0.257000000000000;0.163378997961485;0.165655658555163;0.104239153740507
0.258000000000000;0.163959111488422;0.166235726275399;0.104239153740507
0.259000000000000;0.164538595651819;0.166815101041386;0.104239153740507
0.260000000000000;0.165117450385505;0.167393783628885;0.104239153740507
0.261000000000000;0.165695675637807;0.167971774824856;0.104239153740507
0.262000000000000;0.166273271371626;0.168549075427338;0.104239153740507
0.263000000000000;0.166850237564512;0.169125686245339;0.104239153740507
0.264000000000000;0.167426574208742;0.169701608098729;0.104239153740507
0.265000000000000;0.168002281311381;0.170276841818125;0.104239153740507
0.266000000000000;0.168577358894355;0.170851388244791;0.104239153740507
0.267000000000000;0.169151806994509;0.171425248230529;0.104239153740507
0.268000000000000;0.169725625663666;0.171998422637581;0.104239153740507
0.269000000000000;0.170298814968686;0.172570912338523;0.104239153740507
0.270000000000000;0.170871374991514;0.173142718216175;0.104239153740507
0.271000000000000;0.171443305829230;0.173713841163494;0.104239153740507
0.272000000000000;0.172014607594094;0.174284282083487;0.104239153740507
0.273000000000000;0.172585280413590;0.174854041889117;0.104239153740507
0.274000000000000;0.173155324430461;0.175423121503209;0.104239153740507
0.275000000000000;0.173724739802746;0.175991521858361;0.104239153740507
0.276000000000000;0.174293526703814;0.176559243896859;0.104239153740507
