Density;f;f0;u;P;T
0.000000000141973;-0.000000000000082;-0.000000000000090;0.188574204475177
0.001000000000000;0.000178182958462;0.000178734188662;0.188574204475177
0.002000000000000;0.000615583957102;0.000617268443993;0.188574204475177
0.003000000000000;0.001149423457279;0.001152858068163;0.188574204475177
0.004000000000000;0.001745198672207;0.001750912659735;0.188574204475177
0.005000000000000;0.002386525370921;0.002395005945027;0.188574204475177
0.006000000000000;0.003063760809822;0.003075464510906;0.188574204475177
0.007000000000000;0.003770536437239;0.003785897683508;0.188574204475177
0.008000000000000;0.004502328625764;0.004521764365231;0.188574204475177
0.009000000000000;0.005255758137159;0.005279670063214;0.188574204475177
0.010000000000000;0.006028205087820;0.006056980758230;0.188574204475177
0.011000000000000;0.006817579359948;0.006851592915569;0.188574204475177
0.012000000000000;0.007622175088854;0.007661787859871;0.188574204475177
0.013000000000000;0.008440573945323;0.008486135039385;0.188574204475177
0.014000000000000;0.009271578342947;0.009323425233032;0.188574204475177
0.015000000000000;0.010114163831971;0.010172622937872;0.188574204475177
0.016000000000000;0.010967444254780;0.011032831508531;0.188574204475177
0.017000000000000;0.011830645656714;0.011903267044695;0.188574204475177
0.018000000000000;0.012703086365335;0.012783238443105;0.188574204475177
0.019000000000000;0.013584161517028;0.013672131895421;0.188574204475177
0.020000000000000;0.014473330855670;0.014569398658213;0.188574204475177
0.021000000000000;0.015370108982116;0.015474545274679;0.188574204475177
0.022000000000000;0.016274057468900;0.016387125662819;0.188574204475177
0.023000000000000;0.017184778414832;0.017306734644877;0.188574204475177
0.024000000000000;0.018101909125550;0.018233002604058;0.188574204475177
0.025000000000000;0.019025117684764;0.019165591033209;0.188574204475177
0.026000000000000;0.019954099237584;0.020104188796761;0.188574204475177
0.027000000000000;0.020888572848607;0.021048508968529;0.188574204475177
0.028000000000000;0.021828278828025;0.021998286138570;0.188574204475177
0.029000000000000;0.022772976441929;0.022953274105230;0.188574204475177
0.030000000000000;0.023722441940352;0.023913243885869;0.188574204475177
0.031000000000000;0.024676466849896;0.024877981993090;0.188574204475177
0.032000000000000;0.025634856488118;0.025847288933605;0.188574204475177
0.033000000000000;0.026597428664855;0.026820977894908;0.188574204475177
0.034000000000000;0.027564012542051;0.027798873591275;0.188574204475177
0.035000000000000;0.028534447628638;0.028780811245630;0.188574204475177
0.036000000000000;0.029508582891079;0.029766635687869;0.188574204475177
0.037000000000000;0.030486275963421;0.030756200553431;0.188574204475177
0.038000000000000;0.031467392443304;0.031749367568575;0.188574204475177
0.039000000000000;0.032451805262567;0.032746005910937;0.188574204475177
0.040000000000000;0.033439394122796;0.033745991635718;0.188574204475177
0.041000000000000;0.034430044987650;0.034749207159279;0.188574204475177
0.042000000000000;0.035423649624987;0.035755540793154;0.188574204475177
0.043000000000000;0.036420105192809;0.036764886322463;0.188574204475177
0.044000000000000;0.037419313863902;0.037777142623568;0.188574204475177
0.045000000000000;0.038421182484722;0.038792213316499;0.188574204475177
0.046000000000000;0.039425622264708;0.039810006448304;0.188574204475177
0.047000000000000;0.040432548492677;0.040830434203931;0.188574204475177
0.048000000000000;0.041441880277399;0.041853412641742;0.188574204475177
0.049000000000000;0.042453540309817;0.042878861451074;0.188574204475177
0.050000000000000;0.043467454644679;0.043906703729597;0.188574204475177
0.051000000000000;0.044483552499638;0.044936865778499;0.188574204475177
0.052000000000000;0.045501766070080;0.045969276913733;0.188574204475177
0.053000000000000;0.046522030358168;0.047003869291800;0.188574204475177
0.054000000000000;0.047544283014751;0.048040577748685;0.188574204475177
0.055000000000000;0.048568464192937;0.049079339650720;0.188574204475177
0.056000000000000;0.049594516412258;0.050120094756314;0.188574204475177
0.057000000000000;0.050622384432493;0.051162785087549;0.188574204475177
0.058000000000000;0.051652015136280;0.052207354810803;0.188574204475177
0.059000000000000;0.052683357419769;0.053253750125606;0.188574204475177
0.060000000000000;0.053716362090623;0.054301919161031;0.188574204475177
0.061000000000000;0.054750981772762;0.055351811879000;0.188574204475177
0.062000000000000;0.055787170817292;0.056403379983937;0.188574204475177
0.063000000000000;0.056824885219114;0.057456576838246;0.188574204475177
0.064000000000000;0.057864082538777;0.058511357383164;0.188574204475177
0.065000000000000;0.058904721829149;0.059567678064559;0.188574204475177
0.066000000000000;0.059946763566548;0.060625496763302;0.188574204475177
0.067000000000000;0.060990169585990;0.061684772729858;0.188574204475177
0.068000000000000;0.062034903020248;0.062745466522786;0.188574204475177
0.069000000000000;0.063080928242446;0.063807539950857;0.188574204475177
0.070000000000000;0.064128210811932;0.064870956018532;0.188574204475177
0.071000000000000;0.065176717423193;0.065935678874561;0.188574204475177
0.072000000000000;0.066226415857607;0.067001673763467;0.188574204475177
0.073000000000000;0.067277274937829;0.068068906979746;0.188574204475177
0.074000000000000;0.068329264484637;0.069137345824563;0.188574204475177
0.075000000000000;0.069382355276071;0.070206958564797;0.188574204475177
0.076000000000000;0.070436519008717;0.071277714394274;0.188574204475177
0.077000000000000;0.071491728260990;0.072349583397039;0.188574204475177
0.078000000000000;0.072547956458294;0.073422536512537;0.188574204475177
0.079000000000000;0.073605177839939;0.074496545502586;0.188574204475177
0.080000000000000;0.074663367427702;0.075571582920017;0.188574204475177
0.081000000000000;0.075722500995935;0.076647622078890;0.188574204475177
0.082000000000000;0.076782555043122;0.077724637026179;0.188574204475177
0.083000000000000;0.077843506764802;0.078802602514841;0.188574204475177
0.084000000000000;0.078905334027776;0.079881493978184;0.188574204475177
0.085000000000000;0.079968015345517;0.080961287505456;0.188574204475177
0.086000000000000;0.081031529854724;0.082041959818586;0.188574204475177
0.087000000000000;0.082095857292945;0.083123488250008;0.188574204475177
0.088000000000000;0.083160977977217;0.084205850721504;0.188574204475177
0.089000000000000;0.084226872783657;0.085289025724015;0.188574204475177
0.090000000000000;0.085293523127962;0.086372992298351;0.188574204475177
0.091000000000000;0.086360910946755;0.087457730016773;0.188574204475177
0.092000000000000;0.087429018679752;0.088543218965373;0.188574204475177
0.093000000000000;0.088497829252682;0.089629439727233;0.188574204475177
0.094000000000000;0.089567326060934;0.090716373366298;0.188574204475177
0.095000000000000;0.090637492953900;0.091804001411945;0.188574204475177
0.096000000000000;0.091708314219956;0.092892305844201;0.188574204475177
0.097000000000000;0.092779774572072;0.093981269079577;0.188574204475177
0.098000000000000;0.093851859134002;0.095070873957487;0.188574204475177
0.099000000000000;0.094924553427034;0.096161103727223;0.188574204475177
0.100000000000000;0.095997843357272;0.097251942035458;0.188574204475177
0.101000000000000;0.097071715203414;0.098343372914253;0.188574204475177
0.102000000000000;0.098146155605019;0.099435380769530;0.188574204475177
0.103000000000000;0.099221151551222;0.100527950370011;0.188574204475177
0.104000000000000;0.100296690369888;0.101621066836580;0.188574204475177
0.105000000000000;0.101372759717174;0.102714715632055;0.188574204475177
0.106000000000000;0.102449347567493;0.103808882551355;0.188574204475177
0.107000000000000;0.103526442203844;0.104903553712036;0.188574204475177
0.108000000000000;0.104604032208509;0.105998715545181;0.188574204475177
0.109000000000000;0.105682106454086;0.107094354786632;0.188574204475177
0.110000000000000;0.106760654094851;0.108190458468544;0.188574204475177
0.111000000000000;0.107839664558428;0.109287013911241;0.188574204475177
0.112000000000000;0.108919127537761;0.110384008715377;0.188574204475177
0.113000000000000;0.109999032983366;0.111481430754369;0.188574204475177
0.114000000000000;0.111079371095859;0.112579268167103;0.188574204475177
0.115000000000000;0.112160132318738;0.113677509350898;0.188574204475177
0.116000000000000;0.113241307331420;0.114776142954711;0.188574204475177
0.117000000000000;0.114322887042508;0.115875157872583;0.188574204475177
0.118000000000000;0.115404862583293;0.116974543237302;0.188574204475177
0.119000000000000;0.116487225301469;0.118074288414295;0.188574204475177
0.120000000000000;0.117569966755056;0.119174382995711;0.188574204475177
0.121000000000000;0.118653078706529;0.120274816794712;0.188574204475177
0.122000000000000;0.119736553117128;0.121375579839954;0.188574204475177
0.123000000000000;0.120820382141362;0.122476662370240;0.188574204475177
0.124000000000000;0.121904558121685;0.123578054829360;0.188574204475177
0.125000000000000;0.122989073583336;0.124679747861091;0.188574204475177
0.126000000000000;0.124073921229349;0.125781732304362;0.188574204475177
0.127000000000000;0.125159093935710;0.126883999188567;0.188574204475177
0.128000000000000;0.126244584746676;0.127986539729033;0.188574204475177
0.129000000000000;0.127330386870221;0.129089345322631;0.188574204475177
0.130000000000000;0.128416493673632;0.130192407543516;0.188574204475177
0.131000000000000;0.129502898679234;0.131295718139007;0.188574204475177
0.132000000000000;0.130589595560240;0.132399269025590;0.188574204475177
0.133000000000000;0.131676578136725;0.133503052285045;0.188574204475177
0.134000000000000;0.132763840371719;0.134607060160687;0.188574204475177
0.135000000000000;0.133851376367411;0.135711285053722;0.188574204475177
0.136000000000000;0.134939180361467;0.136815719519714;0.188574204475177
0.137000000000000;0.136027246723443;0.137920356265153;0.188574204475177
0.138000000000000;0.137115569951313;0.139025188144124;0.188574204475177
0.139000000000000;0.138204144668079;0.140130208155080;0.188574204475177
0.140000000000000;0.139292965618494;0.141235409437697;0.188574204475177
0.141000000000000;0.140382027665856;0.142340785269832;0.188574204475177
0.142000000000000;0.141471325788904;0.143446329064556;0.188574204475177
0.143000000000000;0.142560855078793;0.144552034367285;0.188574204475177
0.144000000000000;0.143650610736149;0.145657894852980;0.188574204475177
0.145000000000000;0.144740588068210;0.146763904323431;0.188574204475177
0.146000000000000;0.145830782486032;0.147870056704615;0.188574204475177
0.147000000000000;0.146921189501783;0.148976346044132;0.188574204475177
0.148000000000000;0.148011804726095;0.150082766508702;0.188574204475177
0.149000000000000;0.149102623865496;0.151189312381740;0.188574204475177
0.150000000000000;0.150193642719898;0.152295978060993;0.188574204475177
0.151000000000000;0.151284857180165;0.153402758056238;0.188574204475177
0.152000000000000;0.152376263225725;0.154509646987045;0.188574204475177
0.153000000000000;0.153467856922262;0.155616639580601;0.188574204475177
0.154000000000000;0.154559634419452;0.156723730669588;0.188574204475177
0.155000000000000;0.155651591948766;0.157830915190119;0.188574204475177
0.156000000000000;0.156743725821327;0.158938188179725;0.188574204475177
0.157000000000000;0.157836032425814;0.160045544775400;0.188574204475177
0.158000000000000;0.158928508226435;0.161152980211694;0.188574204475177
0.159000000000000;0.160021149760930;0.162260489818849;0.188574204475177
0.160000000000000;0.161113953638645;0.163368069020993;0.188574204475177
0.161000000000000;0.162206916538638;0.164475713334372;0.188574204475177
0.162000000000000;0.163300035207844;0.165583418365632;0.188574204475177
0.163000000000000;0.164393306459280;0.166691179810138;0.188574204475177
0.164000000000000;0.165486727170297;0.167798993450341;0.188574204475177
0.165000000000000;0.166580294280876;0.168906855154182;0.188574204475177
0.166000000000000;0.167674004791967;0.170014760873536;0.188574204475177
0.167000000000000;0.168767855763871;0.171122706642696;0.188574204475177
0.168000000000000;0.169861844314661;0.172230688576891;0.188574204475177
0.169000000000000;0.170955967618643;0.173338702870843;0.188574204475177
0.170000000000000;0.172050222904860;0.174446745797355;0.188574204475177
0.171000000000000;0.173144607455631;0.175554813705937;0.188574204475177
0.172000000000000;0.174239118605127;0.176662903021465;0.188574204475177
0.173000000000000;0.175333753737989;0.177771010242864;0.188574204475177
0.174000000000000;0.176428510287972;0.178879131941835;0.188574204475177
0.175000000000000;0.177523385736639;0.179987264761599;0.188574204475177
0.176000000000000;0.178618377612075;0.181095405415682;0.188574204475177
0.177000000000000;0.179713483487643;0.182203550686717;0.188574204475177
0.178000000000000;0.180808700980776;0.183311697425284;0.188574204475177
0.179000000000000;0.181904027751790;0.184419842548769;0.188574204475177
0.180000000000000;0.182999461502745;0.185527983040254;0.188574204475177
0.181000000000000;0.184094999976324;0.186636115947431;0.188574204475177
0.182000000000000;0.185190640954750;0.187744238381537;0.188574204475177
0.183000000000000;0.186286382258732;0.188852347516321;0.188574204475177
0.184000000000000;0.187382221746442;0.189960440587026;0.188574204475177
0.185000000000000;0.188478157312519;0.191068514889399;0.188574204475177
0.186000000000000;0.189574186887102;0.192176567778720;0.188574204475177
0.187000000000000;0.190670308434896;0.193284596668856;0.188574204475177
0.188000000000000;0.191766519954262;0.194392599031331;0.188574204475177
0.189000000000000;0.192862819476333;0.195500572394422;0.188574204475177
0.190000000000000;0.193959205064160;0.196608514342270;0.188574204475177
0.191000000000000;0.195055674811887;0.197716422514014;0.188574204475177
0.192000000000000;0.196152226843947;0.198824294602940;0.188574204475177
0.193000000000000;0.197248859314283;0.199932128355653;0.188574204475177
0.194000000000000;0.198345570405604;0.201039921571262;0.188574204475177
0.195000000000000;0.199442358328652;0.202147672100585;0.188574204475177
0.196000000000000;0.200539221321507;0.203255377845374;0.188574204475177
0.197000000000000;0.201636157648905;0.204363036757547;0.188574204475177
0.198000000000000;0.202733165601588;0.205470646838449;0.188574204475177
0.199000000000000;0.203830243495671;0.206578206138117;0.188574204475177
0.200000000000000;0.204927389672038;0.207685712754566;0.188574204475177
0.201000000000000;0.206024602495754;0.208793164833093;0.188574204475177
0.202000000000000;0.207121880355504;0.209900560565587;0.188574204475177
0.203000000000000;0.208219221663053;0.211007898189859;0.188574204475177
0.204000000000000;0.209316624852725;0.212115175988988;0.188574204475177
0.205000000000000;0.210414088380906;0.213222392290674;0.188574204475177
0.206000000000000;0.211511610725567;0.214329545466608;0.188574204475177
0.207000000000000;0.212609190385802;0.215436633931855;0.188574204475177
0.208000000000000;0.213706825881396;0.216543656144249;0.188574204475177
0.209000000000000;0.214804515752405;0.217650610603799;0.188574204475177
0.210000000000000;0.215902258558754;0.218757495852110;0.188574204475177
0.211000000000000;0.217000052879861;0.219864310471813;0.188574204475177
0.212000000000000;0.218097897314273;0.220971053086005;0.188574204475177
0.213000000000000;0.219195790479322;0.222077722357708;0.188574204475177
0.214000000000000;0.220293731010801;0.223184316989325;0.188574204475177
0.215000000000000;0.221391717562651;0.224290835722125;0.188574204475177
0.216000000000000;0.222489748806674;0.225397277335717;0.188574204475177
0.217000000000000;0.223587823432252;0.226503640647557;0.188574204475177
0.218000000000000;0.224685940146093;0.227609924512442;0.188574204475177
0.219000000000000;0.225784097671985;0.228716127822036;0.188574204475177
0.220000000000000;0.226882294750565;0.229822249504386;0.188574204475177
0.221000000000000;0.227980530139113;0.230928288523459;0.188574204475177
0.222000000000000;0.229078802611347;0.232034243878686;0.188574204475177
0.223000000000000;0.230177110957242;0.233140114604511;0.188574204475177
0.224000000000000;0.231275453982858;0.234245899769954;0.188574204475177
0.225000000000000;0.232373830510188;0.235351598478179;0.188574204475177
0.226000000000000;0.233472239377009;0.236457209866070;0.188574204475177
0.227000000000000;0.234570679436755;0.237562733103816;0.188574204475177
0.228000000000000;0.235669149558399;0.238668167394506;0.188574204475177
0.229000000000000;0.236767648626346;0.239773511973729;0.188574204475177
0.230000000000000;0.237866175540338;0.240878766109183;0.188574204475177
0.231000000000000;0.238964729215377;0.241983929100289;0.188574204475177
0.232000000000000;0.240063308581644;0.243089000277816;0.188574204475177
0.233000000000000;0.241161912584449;0.244193979003510;0.188574204475177
0.234000000000000;0.242260540184171;0.245298864669733;0.188574204475177
0.235000000000000;0.243359190356225;0.246403656699105;0.188574204475177
0.236000000000000;0.244457862091026;0.247508354544157;0.188574204475177
0.237000000000000;0.245556554393969;0.248612957686986;0.188574204475177
0.238000000000000;0.246655266285420;0.249717465638921;0.188574204475177
0.239000000000000;0.247753996800705;0.250821877940188;0.188574204475177
0.240000000000000;0.248852744990121;0.251926194159595;0.188574204475177
0.241000000000000;0.249951509918945;0.253030413894205;0.188574204475177
0.242000000000000;0.251050290667456;0.254134536769029;0.188574204475177
0.243000000000000;0.252149086330958;0.255238562436718;0.188574204475177
0.244000000000000;0.253247896019821;0.256342490577265;0.188574204475177
0.245000000000000;0.254346718859514;0.257446320897707;0.188574204475177
0.246000000000000;0.255445553990660;0.258550053131835;0.188574204475177
0.247000000000000;0.256544400569083;0.259653687039914;0.188574204475177
0.248000000000000;0.257643257765868;0.260757222408399;0.188574204475177
0.249000000000000;0.258742124767431;0.261860659049664;0.188574204475177
0.250000000000000;0.259841000775579;0.262963996801735;0.188574204475177
0.251000000000000;0.260939885007591;0.264067235528020;0.188574204475177
0.252000000000000;0.262038776696297;0.265170375117056;0.188574204475177
0.253000000000000;0.263137675090155;0.266273415482252;0.188574204475177
0.254000000000000;0.264236579453343;0.267376356561638;0.188574204475177
0.255000000000000;0.265335489065849;0.268479198317623;0.188574204475177
0.256000000000000;0.266434403223562;0.269581940736752;0.188574204475177
0.257000000000000;0.267533321238372;0.270684583829472;0.188574204475177
0.258000000000000;0.268632242438269;0.271787127629896;0.188574204475177
0.259000000000000;0.269731166167446;0.272889572195581;0.188574204475177
0.260000000000000;0.270830091786402;0.273991917607299;0.188574204475177
0.261000000000000;0.271929018672050;0.275094163968820;0.188574204475177
0.262000000000000;0.273027946217828;0.276196311406698;0.188574204475177
0.263000000000000;0.274126873833805;0.277298360070056;0.188574204475177
0.264000000000000;0.275225800946799;0.278400310130380;0.188574204475177
0.265000000000000;0.276324727000483;0.279502161781319;0.188574204475177
0.266000000000000;0.277423651455505;0.280603915238475;0.188574204475177
0.267000000000000;0.278522573789601;0.281705570739218;0.188574204475177
0.268000000000000;0.279621493497709;0.282807128542485;0.188574204475177
0.269000000000000;0.280720410092087;0.283908588928592;0.188574204475177
0.270000000000000;0.281819323102427;0.285009952199053;0.188574204475177
0.271000000000000;0.282918232075973;0.286111218676391;0.188574204475177
0.272000000000000;0.284017136577636;0.287212388703962;0.188574204475177
0.273000000000000;0.285116036190109;0.288313462645778;0.188574204475177
0.274000000000000;0.286214930513981;0.289414440886338;0.188574204475177
0.275000000000000;0.287313819167854;0.290515323830452;0.188574204475177
0.276000000000000;0.288412701788456;0.291616111903081;0.188574204475177
