Density;f;f0;u;P;T
0.000000000049110;-0.000000000000006;-0.000000000000014;0.234769664568168
0.001000000000000;0.000471059803683;0.000471674538242;0.234769664568168
0.002000000000000;0.001264778316100;0.001266653686737;0.234769664568168
0.003000000000000;0.002178495794283;0.002182325692836;0.234769664568168
0.004000000000000;0.003169239691818;0.003175627334803;0.234769664568168
0.005000000000000;0.004216605497674;0.004226109216910;0.234769664568168
0.006000000000000;0.005308583838598;0.005321729055784;0.234769664568168
0.007000000000000;0.006437243057537;0.006454531475626;0.234769664568168
0.008000000000000;0.007596949087759;0.007618863760119;0.234769664568168
0.009000000000000;0.008783492838135;0.008810500672490;0.234769664568168
0.010000000000000;0.009993610636740;0.010026163733139;0.234769664568168
0.011000000000000;0.011224698346473;0.011263234889706;0.234769664568168
0.012000000000000;0.012474630212396;0.012519575217920;0.234769664568168
0.013000000000000;0.013741638473683;0.013793404488435;0.234769664568168
0.014000000000000;0.015024230230357;0.015083218011611;0.234769664568168
0.015000000000000;0.016321128190825;0.016387727361390;0.234769664568168
0.016000000000000;0.017631227301401;0.017705816974972;0.234769664568168
0.017000000000000;0.018953562271418;0.019036511643604;0.234769664568168
0.018000000000000;0.020287282774850;0.020378951678040;0.234769664568168
0.019000000000000;0.021631634186726;0.021732373608918;0.234769664568168
0.020000000000000;0.022985942391923;0.023096094960821;0.234769664568168
0.021000000000000;0.024349601644610;0.024469502078853;0.234769664568168
0.022000000000000;0.025722064749104;0.025852040278628;0.234769664568168
0.023000000000000;0.027102835033363;0.027243205790868;0.234769664568168
0.024000000000000;0.028491459723633;0.028642539108995;0.234769664568168
0.025000000000000;0.029887524428539;0.030049619447892;0.234769664568168
0.026000000000000;0.031290648508882;0.031464060089865;0.234769664568168
0.027000000000000;0.032700481163992;0.032885504448656;0.234769664568168
0.028000000000000;0.034116698098609;0.034313622715155;0.234769664568168
0.029000000000000;0.035538998671007;0.035748108985833;0.234769664568168
0.030000000000000;0.036967103433973;0.037188678784848;0.234769664568168
0.031000000000000;0.038400752008302;0.038635066920193;0.234769664568168
0.032000000000000;0.039839701228168;0.040087025612309;0.234769664568168
0.033000000000000;0.041283723523128;0.041544322860776;0.234769664568168
0.034000000000000;0.042732605496898;0.043006741008449;0.234769664568168
0.035000000000000;0.044186146668298;0.044474075468427;0.234769664568168
0.036000000000000;0.045644158371835;0.045946133612773;0.234769664568168
0.037000000000000;0.047106462762630;0.047422733764749;0.234769664568168
0.038000000000000;0.048572891938059;0.048903704309324;0.234769664568168
0.039000000000000;0.050043287163253;0.050388882909138;0.234769664568168
0.040000000000000;0.051517498145444;0.051878115767847;0.234769664568168
0.041000000000000;0.052995382429918;0.053371257019201;0.234769664568168
0.042000000000000;0.054476804795135;0.054868168111426;0.234769664568168
0.043000000000000;0.055961636753095;0.056368717301174;0.234769664568168
0.044000000000000;0.057449756095422;0.057872779193861;0.234769664568168
0.045000000000000;0.058941046435025;0.059380234276065;0.234769664568168
0.046000000000000;0.060435396838934;0.060890968543791;0.234769664568168
0.047000000000000;0.061932701469014;0.062404873137488;0.234769664568168
0.048000000000000;0.063432859258108;0.063921844012847;0.234769664568168
0.049000000000000;0.064935773612978;0.065441781639054;0.234769664568168
0.050000000000000;0.066441352141558;0.066964590721698;0.234769664568168
0.051000000000000;0.067949506402123;0.068490179947851;0.234769664568168
0.052000000000000;0.069460151672218;0.070018461751169;0.234769664568168
0.053000000000000;0.070973206734600;0.071549352095066;0.234769664568168
0.054000000000000;0.072488593693039;0.073082770286329;0.234769664568168
0.055000000000000;0.074006237740962;0.074618638735116;0.234769664568168
0.056000000000000;0.075526067046231;0.076156882844076;0.234769664568168
0.057000000000000;0.077048012609763;0.077697430866767;0.234769664568168
0.058000000000000;0.078572008040923;0.079240213670612;0.234769664568168
0.059000000000000;0.080097989477464;0.080785164663935;0.234769664568168
0.060000000000000;0.081625895494209;0.082332219703965;0.234769664568168
0.061000000000000;0.083155666750333;0.083881316712522;0.234769664568168
0.062000000000000;0.084687246339503;0.085432396091609;0.234769664568168
0.063000000000000;0.086220579257760;0.086985400128957;0.234769664568168
0.064000000000000;0.087755612430545;0.088540273034326;0.234769664568168
0.065000000000000;0.089292294626495;0.090096960859932;0.234769664568168
0.066000000000000;0.090830576591054;0.091655411669826;0.234769664568168
0.067000000000000;0.092370410582797;0.093215575008986;0.234769664568168
0.068000000000000;0.093911750595034;0.094777402173031;0.234769664568168
0.069000000000000;0.095454551956218;0.096340845754987;0.234769664568168
0.070000000000000;0.096998771925267;0.097905860359193;0.234769664568168
0.071000000000000;0.098544368476929;0.099472401164182;0.234769664568168
0.072000000000000;0.100091301738017;0.101040425657922;0.234769664568168
0.073000000000000;0.101639532648055;0.102609892038819;0.234769664568168
0.074000000000000;0.103189023521652;0.104180759901185;0.234769664568168
0.075000000000000;0.104739737873330;0.105752990036447;0.234769664568168
0.076000000000000;0.106291640368270;0.107326544384936;0.234769664568168
0.077000000000000;0.107844696778780;0.108901385990216;0.234769664568168
0.078000000000000;0.109398873940386;0.110477478955797;0.234769664568168
0.079000000000000;0.110954139710402;0.112054788404060;0.234769664568168
0.080000000000000;0.112510462928785;0.113633280437280;0.234769664568168
0.081000000000000;0.114067813380947;0.115212922100591;0.234769664568168
0.082000000000000;0.115626161762380;0.116793681346790;0.234769664568168
0.083000000000000;0.117185479644962;0.118375527002855;0.234769664568168
0.084000000000000;0.118745739444838;0.119958428738091;0.234769664568168
0.085000000000000;0.120306914391797;0.121542357033782;0.234769664568168
0.086000000000000;0.121868978500049;0.123127283154290;0.234769664568168
0.087000000000000;0.123431906540327;0.124713179119491;0.234769664568168
0.088000000000000;0.124995674013250;0.126300017678481;0.234769664568168
0.089000000000000;0.126560257123860;0.127887772284493;0.234769664568168
0.090000000000000;0.128125632757278;0.129476417070928;0.234769664568168
0.091000000000000;0.129691778455422;0.131065926828463;0.234769664568168
0.092000000000000;0.131258672394714;0.132656276983174;0.234769664568168
0.093000000000000;0.132826293364738;0.134247443575598;0.234769664568168
0.094000000000000;0.134394620747797;0.135839403240713;0.234769664568168
0.095000000000000;0.135963634499312;0.137432133188762;0.234769664568168
0.096000000000000;0.137533315129032;0.139025611186897;0.234769664568168
0.097000000000000;0.139103643683004;0.140619815541584;0.234769664568168
0.098000000000000;0.140674601726273;0.142214725081733;0.234769664568168
0.099000000000000;0.142246171326270;0.143810319142532;0.234769664568168
0.100000000000000;0.143818335036857;0.145406577549924;0.234769664568168
0.101000000000000;0.145391075882999;0.147003480605710;0.234769664568168
0.102000000000000;0.146964377346023;0.148601009073254;0.234769664568168
0.103000000000000;0.148538223349452;0.150199144163736;0.234769664568168
0.104000000000000;0.150112598245376;0.151797867522954;0.234769664568168
0.105000000000000;0.151687486801334;0.153397161218628;0.234769664568168
0.106000000000000;0.153262874187693;0.154997007728197;0.234769664568168
0.107000000000000;0.154838745965496;0.156597389927067;0.234769664568168
0.108000000000000;0.156415088074752;0.158198291077317;0.234769664568168
0.109000000000000;0.157991886823157;0.159799694816811;0.234769664568168
0.110000000000000;0.159569128875232;0.161401585148719;0.234769664568168
0.111000000000000;0.161146801241841;0.163003946431419;0.234769664568168
0.112000000000000;0.162724891270087;0.164606763368769;0.234769664568168
0.113000000000000;0.164303386633575;0.166210021000717;0.234769664568168
0.114000000000000;0.165882275323007;0.167813704694264;0.234769664568168
0.115000000000000;0.167461545637116;0.169417800134727;0.234769664568168
0.116000000000000;0.169041186173906;0.171022293317319;0.234769664568168
0.117000000000000;0.170621185822203;0.172627170539021;0.234769664568168
0.118000000000000;0.172201533753496;0.174232418390729;0.234769664568168
0.119000000000000;0.173782219414049;0.175838023749670;0.234769664568168
0.120000000000000;0.175363232517288;0.177443973772081;0.234769664568168
0.121000000000000;0.176944563036444;0.179050255886123;0.234769664568168
0.122000000000000;0.178526201197437;0.180656857785044;0.234769664568168
0.123000000000000;0.180108137472007;0.182263767420554;0.234769664568168
0.124000000000000;0.181690362571063;0.183870972996429;0.234769664568168
0.125000000000000;0.183272867438254;0.185478462962317;0.234769664568168
0.126000000000000;0.184855643243759;0.187086226007744;0.234769664568168
0.127000000000000;0.186438681378265;0.188694251056315;0.234769664568168
0.128000000000000;0.188021973447150;0.190302527260096;0.234769664568168
0.129000000000000;0.189605511264856;0.191911043994175;0.234769664568168
0.130000000000000;0.191189286849429;0.193519790851392;0.234769664568168
0.131000000000000;0.192773292417249;0.195128757637236;0.234769664568168
0.132000000000000;0.194357520377918;0.196737934364894;0.234769664568168
0.133000000000000;0.195941963329308;0.198347311250457;0.234769664568168
0.134000000000000;0.197526614052773;0.199956878708266;0.234769664568168
0.135000000000000;0.199111465508500;0.201566627346405;0.234769664568168
0.136000000000000;0.200696510831012;0.203176547962324;0.234769664568168
0.137000000000000;0.202281743324805;0.204786631538595;0.234769664568168
0.138000000000000;0.203867156460123;0.206396869238789;0.234769664568168
0.139000000000000;0.205452743868856;0.208007252403481;0.234769664568168
0.140000000000000;0.207038499340570;0.209617772546367;0.234769664568168
0.141000000000000;0.208624416818647;0.211228421350492;0.234769664568168
0.142000000000000;0.210210490396552;0.212839190664588;0.234769664568168
0.143000000000000;0.211796714314199;0.214450072499518;0.234769664568168
0.144000000000000;0.213383082954434;0.216061059024823;0.234769664568168
0.145000000000000;0.214969590839619;0.217672142565355;0.234769664568168
0.146000000000000;0.216556232628307;0.219283315598020;0.234769664568168
0.147000000000000;0.218143003112029;0.220894570748597;0.234769664568168
0.148000000000000;0.219729897212159;0.222505900788658;0.234769664568168
0.149000000000000;0.221316909976876;0.224117298632559;0.234769664568168
0.150000000000000;0.222904036578211;0.225728757334528;0.234769664568168
0.151000000000000;0.224491272309173;0.227340270085815;0.234769664568168
0.152000000000000;0.226078612580962;0.228951830211936;0.234769664568168
0.153000000000000;0.227666052920253;0.230563431169977;0.234769664568168
0.154000000000000;0.229253588966555;0.232175066545978;0.234769664568168
0.155000000000000;0.230841216469646;0.233786730052382;0.234769664568168
0.156000000000000;0.232428931287072;0.235398415525552;0.234769664568168
0.157000000000000;0.234016729381715;0.237010116923356;0.234769664568168
0.158000000000000;0.235604606819425;0.238621828322808;0.234769664568168
0.159000000000000;0.237192559766711;0.240233543917776;0.234769664568168
0.160000000000000;0.238780584488501;0.241845258016748;0.234769664568168
0.161000000000000;0.240368677345944;0.243456965040652;0.234769664568168
0.162000000000000;0.241956834794279;0.245068659520729;0.234769664568168
0.163000000000000;0.243545053380756;0.246680336096473;0.234769664568168
0.164000000000000;0.245133329742606;0.248291989513603;0.234769664568168
0.165000000000000;0.246721660605060;0.249903614622108;0.234769664568168
0.166000000000000;0.248310042779413;0.251515206374311;0.234769664568168
0.167000000000000;0.249898473161148;0.253126759823019;0.234769664568168
0.168000000000000;0.251486948728081;0.254738270119677;0.234769664568168
0.169000000000000;0.253075466538573;0.256349732512602;0.234769664568168
0.170000000000000;0.254664023729764;0.257961142345238;0.234769664568168
0.171000000000000;0.256252617515866;0.259572495054472;0.234769664568168
0.172000000000000;0.257841245186464;0.261183786168955;0.234769664568168
0.173000000000000;0.259429904104894;0.262795011307514;0.234769664568168
0.174000000000000;0.261018591706623;0.264406166177561;0.234769664568168
0.175000000000000;0.262607305497675;0.266017246573546;0.234769664568168
0.176000000000000;0.264196043053103;0.267628248375479;0.234769664568168
0.177000000000000;0.265784802015464;0.269239167547429;0.234769664568168
0.178000000000000;0.267373580093358;0.270850000136117;0.234769664568168
0.179000000000000;0.268962375059966;0.272460742269500;0.234769664568168
0.180000000000000;0.270551184751648;0.274071390155409;0.234769664568168
0.181000000000000;0.272140007066540;0.275681940080215;0.234769664568168
0.182000000000000;0.273728839963191;0.277292388407510;0.234769664568168
0.183000000000000;0.275317681459230;0.278902731576844;0.234769664568168
0.184000000000000;0.276906529630043;0.280512966102459;0.234769664568168
0.185000000000000;0.278495382607502;0.282123088572094;0.234769664568168
0.186000000000000;0.280084238578681;0.283733095645766;0.234769664568168
0.187000000000000;0.281673095784633;0.285342984054640;0.234769664568168
0.188000000000000;0.283261952519156;0.286952750599850;0.234769664568168
0.189000000000000;0.284850807127582;0.288562392151388;0.234769664568168
0.190000000000000;0.286439658005635;0.290171905647052;0.234769664568168
0.191000000000000;0.288028503598242;0.291781288091335;0.234769664568168
0.192000000000000;0.289617342398409;0.293390536554415;0.234769664568168
0.193000000000000;0.291206172946098;0.294999648171113;0.234769664568168
0.194000000000000;0.292794993827116;0.296608620139889;0.234769664568168
0.195000000000000;0.294383803672060;0.298217449721901;0.234769664568168
0.196000000000000;0.295972601155224;0.299826134240018;0.234769664568168
0.197000000000000;0.297561384993553;0.301434671077871;0.234769664568168
0.198000000000000;0.299150153945642;0.303043057678993;0.234769664568168
0.199000000000000;0.300738906810689;0.304651291545873;0.234769664568168
0.200000000000000;0.302327642427502;0.306259370239088;0.234769664568168
0.201000000000000;0.303916359673516;0.307867291376435;0.234769664568168
0.202000000000000;0.305505057463863;0.309475052632157;0.234769664568168
0.203000000000000;0.307093734750365;0.311082651736038;0.234769664568168
0.204000000000000;0.308682390520598;0.312690086472585;0.234769664568168
0.205000000000000;0.310271023797040;0.314297354680362;0.234769664568168
0.206000000000000;0.311859633636085;0.315904454251088;0.234769664568168
0.207000000000000;0.313448219127164;0.317511383128909;0.234769664568168
0.208000000000000;0.315036779391917;0.319118139309735;0.234769664568168
0.209000000000000;0.316625313583237;0.320724720840365;0.234769664568168
0.210000000000000;0.318213820884523;0.322331125817955;0.234769664568168
0.211000000000000;0.319802300508757;0.323937352389179;0.234769664568168
0.212000000000000;0.321390751697693;0.325543398749571;0.234769664568168
0.213000000000000;0.322979173721093;0.327149263142938;0.234769664568168
0.214000000000000;0.324567565875876;0.328754943860604;0.234769664568168
0.215000000000000;0.326155927485348;0.330360439240819;0.234769664568168
0.216000000000000;0.327744257898438;0.331965747668113;0.234769664568168
0.217000000000000;0.329332556488931;0.333570867572701;0.234769664568168
0.218000000000000;0.330920822654692;0.335175797429802;0.234769664568168
0.219000000000000;0.332509055817013;0.336780535759184;0.234769664568168
0.220000000000000;0.334097255419811;0.338385081124462;0.234769664568168
0.221000000000000;0.335685420928933;0.339989432132548;0.234769664568168
0.222000000000000;0.337273551831454;0.341593587433078;0.234769664568168
0.223000000000000;0.338861647635112;0.343197545718048;0.234769664568168
0.224000000000000;0.340449707867407;0.344801305720909;0.234769664568168
0.225000000000000;0.342037732075201;0.346404866216480;0.234769664568168
0.226000000000000;0.343625719823812;0.348008226019970;0.234769664568168
0.227000000000000;0.345213670696617;0.349611383986880;0.234769664568168
0.228000000000000;0.346801584294315;0.351214339012299;0.234769664568168
0.229000000000000;0.348389460234333;0.352817090030454;0.234769664568168
0.230000000000000;0.349977298150150;0.354419636014091;0.234769664568168
0.231000000000000;0.351565097690923;0.356021975974341;0.234769664568168
0.232000000000000;0.353152858520710;0.357624108959923;0.234769664568168
0.233000000000000;0.354740580318054;0.359226034056930;0.234769664568168
0.234000000000000;0.356328262775359;0.360827750388237;0.234769664568168
0.235000000000000;0.357915905598355;0.362429257113082;0.234769664568168
0.236000000000000;0.359503508505595;0.364030553426638;0.234769664568168
0.237000000000000;0.361091071228089;0.365631638559850;0.234769664568168
0.238000000000000;0.362678593508519;0.367232511778510;0.234769664568168
0.239000000000000;0.364266075101098;0.368833172383449;0.234769664568168
0.240000000000000;0.365853515770745;0.370433619709526;0.234769664568168
0.241000000000000;0.367440915292903;0.372033853125703;0.234769664568168
0.242000000000000;0.369028273453124;0.373633872034672;0.234769664568168
0.243000000000000;0.370615590046439;0.375233675872194;0.234769664568168
0.244000000000000;0.372202864876918;0.376833264106665;0.234769664568168
0.245000000000000;0.373790097757611;0.378432636239346;0.234769664568168
0.246000000000000;0.375377288509740;0.380031791803261;0.234769664568168
0.247000000000000;0.376964436962695;0.381630730363527;0.234769664568168
0.248000000000000;0.378551542953374;0.383229451516484;0.234769664568168
0.249000000000000;0.380138606325937;0.384827954889571;0.234769664568168
0.250000000000000;0.381725626931585;0.386426240141141;0.234769664568168
0.251000000000000;0.383312604628141;0.388024306959989;0.234769664568168
0.252000000000000;0.384899539279715;0.389622155065054;0.234769664568168
0.253000000000000;0.386486430756263;0.391219784204833;0.234769664568168
0.254000000000000;0.388073278933625;0.392817194157587;0.234769664568168
0.255000000000000;0.389660083693205;0.394414384730977;0.234769664568168
0.256000000000000;0.391246844921451;0.396011355761372;0.234769664568168
0.257000000000000;0.392833562509663;0.397608107113642;0.234769664568168
0.258000000000000;0.394420236354106;0.399204638681395;0.234769664568168
0.259000000000000;0.396006866355427;0.400800950386187;0.234769664568168
0.260000000000000;0.397593452418352;0.402397042177035;0.234769664568168
0.261000000000000;0.399179994452081;0.403992914031136;0.234769664568168
0.262000000000000;0.400766492369546;0.405588565952674;0.234769664568168
0.263000000000000;0.402352946087222;0.407183997972590;0.234769664568168
0.264000000000000;0.403939355525457;0.408779210149059;0.234769664568168
0.265000000000000;0.405525720607927;0.410374202566630;0.234769664568168
0.266000000000000;0.407112041261501;0.411968975335966;0.234769664568168
0.267000000000000;0.408698317416398;0.413563528594069;0.234769664568168
0.268000000000000;0.410284549005708;0.415157862503449;0.234769664568168
0.269000000000000;0.411870735965662;0.416751977252475;0.234769664568168
0.270000000000000;0.413456878235400;0.418345873054890;0.234769664568168
0.271000000000000;0.415042975756776;0.419939550149477;0.234769664568168
0.272000000000000;0.416629028474217;0.421533008799622;0.234769664568168
0.273000000000000;0.418215036335275;0.423126249294157;0.234769664568168
0.274000000000000;0.419800999289656;0.424719271945554;0.234769664568168
0.275000000000000;0.421386917290128;0.426312077091354;0.234769664568168
0.276000000000000;0.422972790291851;0.427904665092746;0.234769664568168
